Fs=1000
t,x
0.000,526
0.001,519
0.002,516
0.003,513
0.004,504
0.005,495
0.006,487
0.007,480
0.008,479
0.009,483
0.010,489
0.011,497
0.012,507
0.013,515
0.014,520
0.015,527
0.016,531
0.017,531
0.018,526
0.019,524
0.020,517
0.021,505
0.022,497
0.023,492
0.024,489
0.025,491
0.026,495
0.027,499
0.028,507
0.029,514
0.030,518
0.031,521
0.032,525
0.033,527
0.034,524
0.035,520
0.036,519
0.037,512
0.038,505
0.039,502
0.040,495
0.041,496
0.042,500
0.043,503
0.044,508
0.045,514
0.046,521
0.047,526
0.048,530
0.049,533
0.050,531
0.051,527
0.052,526
0.053,519
0.054,510
0.055,502
0.056,496
0.057,491
0.058,492
0.059,498
0.060,504
0.061,510
0.062,519
0.063,526
0.064,530
0.065,535
0.066,536
0.067,533
0.068,527
0.069,524
0.070,519
0.071,509
0.072,504
0.073,498
0.074,493
0.075,494
0.076,497
0.077,500
0.078,506
0.079,514
0.080,520
0.081,524
0.082,529
0.083,532
0.084,530
0.085,525
0.086,520
0.087,512
0.088,504
0.089,498
0.090,492
0.091,493
0.092,498
0.093,504
0.094,512
0.095,520
0.096,527
0.097,530
0.098,533
0.099,535
0.100,536
0.101,531
0.102,528
0.103,523
0.104,514
0.105,508
0.106,504
0.107,497
0.108,498
0.109,500
0.110,502
0.111,510
0.112,518
0.113,524
0.114,529
0.115,534
0.116,535
0.117,534
0.118,529
0.119,528
0.120,523
0.121,512
0.122,505
0.123,497
0.124,495
0.125,498
0.126,503
0.127,510
0.128,518
0.129,526
0.130,530
0.131,535
0.132,539
0.133,539
0.134,535
0.135,531
0.136,528
0.137,519
0.138,510
0.139,504
0.140,498
0.141,498
0.142,502
0.143,506
0.144,513
0.145,521
0.146,527
0.147,531
0.148,535
0.149,537
0.150,536
0.151,531
0.152,528
0.153,523
0.154,512
0.155,505
0.156,501
0.157,498
0.158,501
0.159,507
0.160,512
0.161,519
0.162,527
0.163,532
0.164,536
0.165,538
0.166,539
0.167,537
0.168,534
0.169,532
0.170,524
0.171,513
0.172,505
0.173,498
0.174,497
0.175,501
0.176,506
0.177,513
0.178,521
0.179,528
0.180,531
0.181,534
0.182,535
0.183,535
0.184,532
0.185,529
0.186,525
0.187,515
0.188,506
0.189,499
0.190,494
0.191,494
0.192,498
0.193,502
0.194,510
0.195,518
0.196,526
0.197,528
0.198,532
0.199,536
0.200,536
0.201,532
0.202,528
0.203,522
0.204,511
0.205,504
0.206,497
0.207,494
0.208,497
0.209,502
0.210,507
0.211,515
0.212,524
0.213,529
0.214,532
0.215,536
0.216,537
0.217,533
0.218,526
0.219,519
0.220,511
0.221,503
0.222,498
0.223,492
0.224,493
0.225,497
0.226,503
0.227,510
0.228,518
0.229,525
0.230,529
0.231,532
0.232,535
0.233,536
0.234,531
0.235,529
0.236,525
0.237,516
0.238,508
0.239,502
0.240,496
0.241,496
0.242,501
0.243,506
0.244,512
0.245,519
0.246,527
0.247,533
0.248,538
0.249,540
0.250,540
0.251,536
0.252,532
0.253,524
0.254,513
0.255,506
0.256,499
0.257,496
0.258,498
0.259,502
0.260,507
0.261,514
0.262,522
0.263,527
0.264,530
0.265,534
0.266,536
0.267,534
0.268,530
0.269,528
0.270,519
0.271,510
0.272,505
0.273,499
0.274,499
0.275,502
0.276,505
0.277,509
0.278,517
0.279,525
0.280,529
0.281,535
0.282,540
0.283,540
0.284,536
0.285,531
0.286,525
0.287,515
0.288,508
0.289,502
0.290,496
0.291,497
0.292,502
0.293,504
0.294,509
0.295,517
0.296,523
0.297,527
0.298,531
0.299,535
0.300,537
0.301,534
0.302,532
0.303,523
0.304,513
0.305,507
0.306,501
0.307,498
0.308,500
0.309,504
0.310,509
0.311,518
0.312,526
0.313,530
0.314,534
0.315,538
0.316,538
0.317,535
0.318,531
0.319,529
0.320,521
0.321,513
0.322,507
0.323,499
0.324,498
0.325,503
0.326,508
0.327,513
0.328,520
0.329,527
0.330,532
0.331,538
0.332,539
0.333,539
0.334,533
0.335,529
0.336,524
0.337,513
0.338,504
0.339,499
0.340,494
0.341,496
0.342,500
0.343,506
0.344,515
0.345,523
0.346,528
0.347,530
0.348,533
0.349,534
0.350,532
0.351,528
0.352,526
0.353,519
0.354,510
0.355,503
0.356,496
0.357,493
0.358,496
0.359,502
0.360,509
0.361,517
0.362,524
0.363,528
0.364,532
0.365,536
0.366,536
0.367,530
0.368,526
0.369,524
0.370,514
0.371,505
0.372,498
0.373,492
0.374,492
0.375,497
0.376,503
0.377,512
0.378,519
0.379,524
0.380,527
0.381,535
0.382,540
0.383,540
0.384,535
0.385,531
0.386,525
0.387,514
0.388,506
0.389,499
0.390,494
0.391,496
0.392,501
0.393,506
0.394,513
0.395,521
0.396,527
0.397,530
0.398,533
0.399,535
0.400,534
0.401,531
0.402,529
0.403,520
0.404,509
0.405,502
0.406,495
0.407,495
0.408,500
0.409,506
0.410,513
0.411,521
0.412,527
0.413,530
0.414,534
0.415,538
0.416,539
0.417,536
0.418,533
0.419,528
0.420,517
0.421,510
0.422,504
0.423,496
0.424,495
0.425,497
0.426,501
0.427,508
0.428,518
0.429,527
0.430,535
0.431,543
0.432,548
0.433,546
0.434,540
0.435,536
0.436,530
0.437,521
0.438,515
0.439,509
0.440,504
0.441,507
0.442,510
0.443,515
0.444,525
0.445,534
0.446,539
0.447,542
0.448,545
0.449,546
0.450,542
0.451,538
0.452,536
0.453,528
0.454,519
0.455,512
0.456,505
0.457,504
0.458,508
0.459,512
0.460,519
0.461,527
0.462,533
0.463,537
0.464,540
0.465,541
0.466,541
0.467,537
0.468,534
0.469,528
0.470,515
0.471,505
0.472,497
0.473,488
0.474,489
0.475,495
0.476,499
0.477,505
0.478,511
0.479,517
0.480,520
0.481,525
0.482,526
0.483,525
0.484,523
0.485,523
0.486,516
0.487,505
0.488,497
0.489,490
0.490,485
0.491,486
0.492,490
0.493,496
0.494,504
0.495,514
0.496,519
0.497,523
0.498,527
0.499,528
0.500,527
0.501,528
0.502,526
0.503,515
0.504,503
0.505,494
0.506,485
0.507,483
0.508,486
0.509,487
0.510,493
0.511,500
0.512,508
0.513,510
0.514,515
0.515,518
0.516,520
0.517,516
0.518,515
0.519,513
0.520,504
0.521,497
0.522,491
0.523,484
0.524,484
0.525,488
0.526,493
0.527,500
0.528,509
0.529,515
0.530,519
0.531,524
0.532,525
0.533,523
0.534,518
0.535,515
0.536,510
0.537,499
0.538,493
0.539,487
0.540,486
0.541,492
0.542,497
0.543,500
0.544,508
0.545,515
0.546,520
0.547,523
0.548,525
0.549,524
0.550,519
0.551,515
0.552,511
0.553,502
0.554,494
0.555,487
0.556,478
0.557,478
0.558,481
0.559,485
0.560,492
0.561,500
0.562,507
0.563,509
0.564,513
0.565,516
0.566,514
0.567,511
0.568,510
0.569,507
0.570,502
0.571,501
0.572,504
0.573,508
0.574,521
0.575,536
0.576,550
0.577,568
0.578,584
0.579,597
0.580,609
0.581,622
0.582,632
0.583,635
0.584,639
0.585,646
0.586,647
0.587,647
0.588,648
0.589,649
0.590,654
0.591,659
0.592,660
0.593,659
0.594,659
0.595,659
0.596,655
0.597,650
0.598,645
0.599,635
0.600,620
0.601,605
0.602,589
0.603,567
0.604,547
0.605,530
0.606,513
0.607,504
0.608,500
0.609,496
0.610,497
0.611,498
0.612,496
0.613,493
0.614,492
0.615,489
0.616,483
0.617,473
0.618,467
0.619,457
0.620,443
0.621,432
0.622,423
0.623,419
0.624,421
0.625,427
0.626,433
0.627,443
0.628,454
0.629,462
0.630,468
0.631,476
0.632,479
0.633,476
0.634,474
0.635,473
0.636,466
0.637,458
0.638,452
0.639,448
0.640,452
0.641,460
0.642,466
0.643,472
0.644,478
0.645,483
0.646,488
0.647,495
0.648,501
0.649,504
0.650,502
0.651,502
0.652,500
0.653,489
0.654,482
0.655,476
0.656,472
0.657,473
0.658,478
0.659,482
0.660,490
0.661,499
0.662,506
0.663,509
0.664,514
0.665,518
0.666,519
0.667,515
0.668,513
0.669,507
0.670,496
0.671,489
0.672,483
0.673,479
0.674,482
0.675,488
0.676,494
0.677,502
0.678,511
0.679,518
0.680,522
0.681,527
0.682,528
0.683,525
0.684,520
0.685,518
0.686,509
0.687,501
0.688,496
0.689,489
0.690,488
0.691,492
0.692,496
0.693,503
0.694,512
0.695,521
0.696,527
0.697,534
0.698,537
0.699,539
0.700,534
0.701,532
0.702,529
0.703,519
0.704,512
0.705,506
0.706,502
0.707,503
0.708,508
0.709,512
0.710,517
0.711,524
0.712,528
0.713,531
0.714,534
0.715,536
0.716,535
0.717,531
0.718,529
0.719,522
0.720,511
0.721,505
0.722,498
0.723,496
0.724,500
0.725,505
0.726,511
0.727,519
0.728,529
0.729,535
0.730,540
0.731,545
0.732,546
0.733,543
0.734,543
0.735,542
0.736,531
0.737,518
0.738,509
0.739,499
0.740,499
0.741,504
0.742,508
0.743,515
0.744,526
0.745,533
0.746,537
0.747,544
0.748,549
0.749,550
0.750,546
0.751,545
0.752,539
0.753,527
0.754,519
0.755,512
0.756,507
0.757,510
0.758,517
0.759,523
0.760,531
0.761,540
0.762,547
0.763,550
0.764,555
0.765,557
0.766,556
0.767,553
0.768,553
0.769,546
0.770,537
0.771,530
0.772,523
0.773,519
0.774,523
0.775,527
0.776,534
0.777,542
0.778,551
0.779,554
0.780,560
0.781,565
0.782,568
0.783,563
0.784,561
0.785,558
0.786,548
0.787,539
0.788,534
0.789,531
0.790,532
0.791,539
0.792,543
0.793,550
0.794,556
0.795,563
0.796,566
0.797,571
0.798,574
0.799,575
0.800,572
0.801,571
0.802,567
0.803,559
0.804,553
0.805,547
0.806,542
0.807,543
0.808,548
0.809,554
0.810,561
0.811,570
0.812,573
0.813,575
0.814,577
0.815,577
0.816,574
0.817,569
0.818,567
0.819,560
0.820,550
0.821,542
0.822,533
0.823,531
0.824,535
0.825,539
0.826,545
0.827,551
0.828,558
0.829,561
0.830,567
0.831,571
0.832,572
0.833,566
0.834,562
0.835,557
0.836,545
0.837,536
0.838,527
0.839,519
0.840,519
0.841,523
0.842,524
0.843,527
0.844,533
0.845,537
0.846,538
0.847,539
0.848,538
0.849,534
0.850,527
0.851,524
0.852,516
0.853,504
0.854,494
0.855,484
0.856,479
0.857,482
0.858,484
0.859,489
0.860,495
0.861,501
0.862,503
0.863,505
0.864,508
0.865,506
0.866,500
0.867,494
0.868,489
0.869,476
0.870,463
0.871,454
0.872,446
0.873,444
0.874,448
0.875,450
0.876,456
0.877,464
0.878,471
0.879,475
0.880,480
0.881,484
0.882,484
0.883,477
0.884,472
0.885,467
0.886,455
0.887,444
0.888,436
0.889,430
0.890,432
0.891,437
0.892,443
0.893,451
0.894,461
0.895,466
0.896,467
0.897,471
0.898,473
0.899,473
0.900,471
0.901,467
0.902,458
0.903,445
0.904,435
0.905,428
0.906,425
0.907,428
0.908,434
0.909,442
0.910,450
0.911,460
0.912,468
0.913,473
0.914,476
0.915,475
0.916,473
0.917,469
0.918,467
0.919,458
0.920,450
0.921,446
0.922,440
0.923,440
0.924,444
0.925,447
0.926,452
0.927,460
0.928,465
0.929,468
0.930,472
0.931,476
0.932,476
0.933,471
0.934,470
0.935,465
0.936,455
0.937,449
0.938,444
0.939,440
0.940,442
0.941,447
0.942,452
0.943,459
0.944,469
0.945,475
0.946,479
0.947,484
0.948,485
0.949,481
0.950,476
0.951,475
0.952,467
0.953,458
0.954,453
0.955,447
0.956,446
0.957,452
0.958,456
0.959,463
0.960,472
0.961,482
0.962,488
0.963,492
0.964,497
0.965,499
0.966,495
0.967,491
0.968,487
0.969,475
0.970,465
0.971,459
0.972,454
0.973,455
0.974,461
0.975,465
0.976,474
0.977,483
0.978,490
0.979,494
0.980,499
0.981,504
0.982,505
0.983,500
0.984,497
0.985,491
0.986,480
0.987,472
0.988,465
0.989,463
0.990,468
0.991,474
0.992,480
0.993,487
0.994,498
0.995,504
0.996,508
0.997,514
0.998,516
0.999,513
1.000,511
1.001,508
1.002,499
1.003,487
1.004,479
1.005,470
1.006,468
1.007,472
1.008,479
1.009,486
1.010,494
1.011,502
1.012,506
1.013,511
1.014,515
1.015,516
1.016,513
1.017,510
1.018,505
1.019,495
1.020,486
1.021,479
1.022,472
1.023,473
1.024,479
1.025,484
1.026,492
1.027,500
1.028,507
1.029,511
1.030,515
1.031,519
1.032,518
1.033,512
1.034,508
1.035,500
1.036,488
1.037,481
1.038,475
1.039,474
1.040,478
1.041,483
1.042,490
1.043,498
1.044,506
1.045,512
1.046,515
1.047,521
1.048,524
1.049,523
1.050,520
1.051,518
1.052,508
1.053,498
1.054,490
1.055,480
1.056,478
1.057,482
1.058,486
1.059,493
1.060,502
1.061,510
1.062,515
1.063,521
1.064,525
1.065,523
1.066,518
1.067,517
1.068,513
1.069,502
1.070,493
1.071,487
1.072,481
1.073,483
1.074,490
1.075,495
1.076,502
1.077,511
1.078,515
1.079,515
1.080,517
1.081,519
1.082,518
1.083,515
1.084,514
1.085,508
1.086,498
1.087,491
1.088,485
1.089,483
1.090,486
1.091,490
1.092,497
1.093,507
1.094,515
1.095,518
1.096,522
1.097,525
1.098,526
1.099,522
1.100,520
1.101,518
1.102,506
1.103,495
1.104,486
1.105,479
1.106,479
1.107,484
1.108,488
1.109,496
1.110,506
1.111,514
1.112,518
1.113,521
1.114,523
1.115,524
1.116,521
1.117,520
1.118,514
1.119,504
1.120,496
1.121,491
1.122,486
1.123,489
1.124,496
1.125,503
1.126,509
1.127,516
1.128,520
1.129,522
1.130,526
1.131,527
1.132,523
1.133,516
1.134,512
1.135,505
1.136,495
1.137,490
1.138,484
1.139,483
1.140,488
1.141,494
1.142,500
1.143,507
1.144,512
1.145,514
1.146,519
1.147,523
1.148,523
1.149,519
1.150,516
1.151,514
1.152,504
1.153,495
1.154,491
1.155,485
1.156,485
1.157,491
1.158,498
1.159,507
1.160,515
1.161,521
1.162,524
1.163,528
1.164,528
1.165,526
1.166,521
1.167,518
1.168,513
1.169,505
1.170,498
1.171,492
1.172,488
1.173,491
1.174,498
1.175,502
1.176,508
1.177,515
1.178,519
1.179,523
1.180,527
1.181,529
1.182,526
1.183,523
1.184,520
1.185,512
1.186,503
1.187,495
1.188,487
1.189,487
1.190,492
1.191,496
1.192,501
1.193,508
1.194,516
1.195,519
1.196,522
1.197,525
1.198,526
1.199,523
1.200,520
1.201,517
1.202,508
1.203,503
1.204,496
1.205,489
1.206,488
1.207,493
1.208,499
1.209,507
1.210,518
1.211,524
1.212,526
1.213,531
1.214,533
1.215,532
1.216,526
1.217,522
1.218,514
1.219,504
1.220,497
1.221,492
1.222,491
1.223,493
1.224,495
1.225,499
1.226,504
1.227,511
1.228,517
1.229,524
1.230,531
1.231,536
1.232,536
1.233,532
1.234,528
1.235,517
1.236,507
1.237,500
1.238,492
1.239,492
1.240,496
1.241,500
1.242,507
1.243,515
1.244,521
1.245,525
1.246,530
1.247,532
1.248,531
1.249,527
1.250,525
1.251,521
1.252,511
1.253,503
1.254,497
1.255,491
1.256,493
1.257,496
1.258,499
1.259,505
1.260,515
1.261,521
1.262,524
1.263,528
1.264,527
1.265,524
1.266,517
1.267,516
1.268,509
1.269,499
1.270,492
1.271,487
1.272,485
1.273,489
1.274,495
1.275,502
1.276,511
1.277,521
1.278,529
1.279,533
1.280,535
1.281,534
1.282,528
1.283,524
1.284,521
1.285,510
1.286,499
1.287,491
1.288,484
1.289,485
1.290,490
1.291,496
1.292,503
1.293,512
1.294,520
1.295,526
1.296,532
1.297,536
1.298,536
1.299,532
1.300,531
1.301,525
1.302,511
1.303,503
1.304,496
1.305,489
1.306,491
1.307,496
1.308,499
1.309,504
1.310,513
1.311,519
1.312,523
1.313,528
1.314,532
1.315,531
1.316,525
1.317,521
1.318,514
1.319,505
1.320,499
1.321,492
1.322,488
1.323,494
1.324,499
1.325,504
1.326,512
1.327,519
1.328,522
1.329,528
1.330,532
1.331,533
1.332,529
1.333,526
1.334,523
1.335,513
1.336,505
1.337,498
1.338,492
1.339,492
1.340,497
1.341,500
1.342,504
1.343,510
1.344,515
1.345,518
1.346,524
1.347,528
1.348,528
1.349,524
1.350,521
1.351,515
1.352,504
1.353,496
1.354,489
1.355,485
1.356,489
1.357,496
1.358,502
1.359,511
1.360,519
1.361,526
1.362,530
1.363,536
1.364,537
1.365,532
1.366,524
1.367,521
1.368,512
1.369,502
1.370,495
1.371,488
1.372,487
1.373,491
1.374,495
1.375,501
1.376,510
1.377,517
1.378,522
1.379,527
1.380,531
1.381,532
1.382,528
1.383,525
1.384,521
1.385,511
1.386,502
1.387,495
1.388,488
1.389,490
1.390,494
1.391,498
1.392,505
1.393,513
1.394,520
1.395,524
1.396,529
1.397,531
1.398,531
1.399,527
1.400,522
1.401,513
1.402,500
1.403,492
1.404,486
1.405,484
1.406,488
1.407,494
1.408,500
1.409,506
1.410,513
1.411,519
1.412,521
1.413,526
1.414,530
1.415,527
1.416,523
1.417,521
1.418,512
1.419,502
1.420,496
1.421,489
1.422,488
1.423,493
1.424,499
1.425,506
1.426,516
1.427,525
1.428,529
1.429,534
1.430,536
1.431,538
1.432,536
1.433,534
1.434,530
1.435,517
1.436,508
1.437,499
1.438,490
1.439,489
1.440,493
1.441,497
1.442,504
1.443,513
1.444,518
1.445,521
1.446,527
1.447,531
1.448,530
1.449,526
1.450,525
1.451,518
1.452,509
1.453,503
1.454,498
1.455,496
1.456,499
1.457,501
1.458,504
1.459,509
1.460,517
1.461,522
1.462,527
1.463,533
1.464,534
1.465,531
1.466,529
1.467,527
1.468,518
1.469,509
1.470,505
1.471,503
1.472,504
1.473,506
1.474,508
1.475,513
1.476,521
1.477,530
1.478,533
1.479,537
1.480,540
1.481,540
1.482,535
1.483,532
1.484,527
1.485,517
1.486,510
1.487,506
1.488,504
1.489,507
1.490,512
1.491,516
1.492,523
1.493,530
1.494,534
1.495,532
1.496,533
1.497,533
1.498,531
1.499,525
1.500,521
1.501,511
1.502,501
1.503,492
1.504,483
1.505,481
1.506,485
1.507,491
1.508,497
1.509,505
1.510,511
1.511,513
1.512,517
1.513,520
1.514,520
1.515,514
1.516,511
1.517,508
1.518,496
1.519,487
1.520,482
1.521,478
1.522,479
1.523,485
1.524,490
1.525,497
1.526,508
1.527,515
1.528,520
1.529,525
1.530,529
1.531,529
1.532,521
1.533,517
1.534,510
1.535,497
1.536,489
1.537,484
1.538,482
1.539,485
1.540,489
1.541,494
1.542,501
1.543,510
1.544,515
1.545,519
1.546,523
1.547,526
1.548,526
1.549,523
1.550,522
1.551,514
1.552,503
1.553,494
1.554,483
1.555,480
1.556,484
1.557,488
1.558,494
1.559,502
1.560,508
1.561,512
1.562,518
1.563,522
1.564,522
1.565,519
1.566,516
1.567,514
1.568,505
1.569,497
1.570,490
1.571,482
1.572,483
1.573,488
1.574,492
1.575,499
1.576,507
1.577,513
1.578,517
1.579,521
1.580,523
1.581,520
1.582,516
1.583,516
1.584,513
1.585,504
1.586,496
1.587,488
1.588,482
1.589,483
1.590,485
1.591,489
1.592,494
1.593,502
1.594,507
1.595,508
1.596,512
1.597,513
1.598,509
1.599,504
1.600,502
1.601,494
1.602,489
1.603,489
1.604,491
1.605,500
1.606,516
1.607,531
1.608,547
1.609,565
1.610,580
1.611,591
1.612,604
1.613,614
1.614,622
1.615,624
1.616,626
1.617,628
1.618,627
1.619,627
1.620,629
1.621,633
1.622,641
1.623,647
1.624,648
1.625,650
1.626,653
1.627,649
1.628,644
1.629,640
1.630,633
1.631,622
1.632,606
1.633,592
1.634,575
1.635,555
1.636,536
1.637,519
1.638,507
1.639,501
1.640,498
1.641,498
1.642,498
1.643,499
1.644,497
1.645,496
1.646,493
1.647,486
1.648,476
1.649,467
1.650,460
1.651,445
1.652,432
1.653,423
1.654,416
1.655,416
1.656,424
1.657,431
1.658,441
1.659,453
1.660,461
1.661,466
1.662,470
1.663,472
1.664,472
1.665,467
1.666,464
1.667,459
1.668,447
1.669,439
1.670,431
1.671,423
1.672,424
1.673,429
1.674,436
1.675,444
1.676,452
1.677,456
1.678,459
1.679,463
1.680,462
1.681,457
1.682,454
1.683,453
1.684,447
1.685,438
1.686,433
1.687,430
1.688,432
1.689,440
1.690,448
1.691,458
1.692,468
1.693,478
1.694,483
1.695,486
1.696,487
1.697,487
1.698,482
1.699,477
1.700,472
1.701,462
1.702,455
1.703,452
1.704,448
1.705,451
1.706,457
1.707,462
1.708,471
1.709,481
1.710,489
1.711,495
1.712,501
1.713,503
1.714,503
1.715,496
1.716,493
1.717,486
1.718,476
1.719,470
1.720,465
1.721,463
1.722,468
1.723,475
1.724,481
1.725,489
1.726,499
1.727,507
1.728,512
1.729,516
1.730,516
1.731,513
1.732,509
1.733,506
1.734,496
1.735,484
1.736,477
1.737,469
1.738,468
1.739,475
1.740,480
1.741,487
1.742,497
1.743,505
1.744,509
1.745,513
1.746,515
1.747,516
1.748,512
1.749,510
1.750,506
1.751,496
1.752,488
1.753,484
1.754,479
1.755,482
1.756,490
1.757,498
1.758,507
1.759,517
1.760,527
1.761,529
1.762,531
1.763,531
1.764,530
1.765,524
1.766,521
1.767,515
1.768,505
1.769,499
1.770,495
1.771,494
1.772,499
1.773,505
1.774,509
1.775,516
1.776,526
1.777,533
1.778,536
1.779,539
1.780,537
1.781,532
1.782,527
1.783,525
1.784,517
1.785,509
1.786,502
1.787,495
1.788,495
1.789,502
1.790,508
1.791,518
1.792,527
1.793,535
1.794,543
1.795,550
1.796,555
1.797,554
1.798,547
1.799,542
1.800,538
1.801,528
1.802,521
1.803,519
1.804,515
1.805,516
1.806,522
1.807,528
1.808,537
1.809,549
1.810,556
1.811,560
1.812,566
1.813,568
1.814,567
1.815,561
1.816,559
1.817,551
1.818,541
1.819,535
1.820,529
1.821,528
1.822,534
1.823,541
1.824,548
1.825,557
1.826,567
1.827,573
1.828,577
1.829,583
1.830,585
1.831,581
1.832,575
1.833,572
1.834,562
1.835,553
1.836,547
1.837,542
1.838,542
1.839,548
1.840,551
1.841,557
1.842,567
1.843,575
1.844,579
1.845,583
1.846,586
1.847,584
1.848,579
1.849,575
1.850,567
1.851,554
1.852,545
1.853,539
1.854,533
1.855,534
1.856,540
1.857,546
1.858,553
1.859,562
1.860,567
1.861,569
1.862,571
1.863,571
1.864,566
1.865,560
1.866,556
1.867,547
1.868,536
1.869,527
1.870,519
1.871,517
1.872,521
1.873,524
1.874,530
1.875,537
1.876,544
1.877,548
1.878,552
1.879,555
1.880,552
1.881,545
1.882,538
1.883,531
1.884,516
1.885,504
1.886,497
1.887,489
1.888,487
1.889,489
1.890,492
1.891,497
1.892,504
1.893,511
1.894,514
1.895,519
1.896,520
1.897,517
1.898,508
1.899,499
1.900,489
1.901,477
1.902,470
1.903,462
1.904,456
1.905,458
1.906,462
1.907,467
1.908,475
1.909,484
1.910,489
1.911,491
1.912,493
1.913,494
1.914,489
1.915,483
1.916,479
1.917,468
1.918,456
1.919,450
1.920,442
1.921,440
1.922,444
1.923,449
1.924,455
1.925,461
1.926,470
1.927,476
1.928,483
1.929,486
1.930,485
1.931,478
1.932,472
1.933,466
1.934,455
1.935,447
1.936,443
1.937,436
1.938,435
1.939,440
1.940,446
1.941,454
1.942,464
1.943,472
1.944,476
1.945,480
1.946,482
1.947,481
1.948,476
1.949,471
1.950,462
1.951,451
1.952,446
1.953,441
1.954,440
1.955,444
1.956,448
1.957,454
1.958,462
1.959,472
1.960,478
1.961,484
1.962,490
1.963,491
1.964,488
1.965,483
1.966,480
1.967,471
1.968,462
1.969,457
1.970,451
1.971,449
1.972,452
1.973,456
1.974,463
1.975,473
1.976,482
1.977,487
1.978,493
1.979,497
1.980,498
1.981,496
1.982,494
1.983,489
1.984,477
1.985,467
1.986,460
1.987,453
1.988,455
1.989,460
1.990,466
1.991,475
1.992,486
1.993,493
1.994,499
1.995,507
1.996,512
1.997,514
1.998,509
1.999,505
2.000,498
2.001,486
2.002,479
2.003,472
2.004,468
2.005,472
2.006,477
2.007,484
2.008,492
2.009,501
2.010,508
2.011,513
2.012,518
2.013,517
2.014,512
2.015,509
2.016,506
2.017,496
2.018,486
2.019,480
2.020,472
2.021,473
2.022,479
2.023,482
2.024,489
2.025,499
2.026,506
2.027,512
2.028,518
2.029,520
2.030,520
2.031,517
2.032,515
2.033,510
2.034,499
2.035,491
2.036,486
2.037,481
2.038,483
2.039,488
2.040,492
2.041,499
2.042,508
2.043,514
2.044,518
2.045,524
2.046,526
2.047,525
2.048,520
2.049,518
2.050,510
2.051,500
2.052,493
2.053,485
2.054,480
2.055,482
2.056,487
2.057,497
2.058,506
2.059,516
2.060,522
2.061,527
2.062,531
2.063,531
2.064,526
2.065,523
2.066,520
2.067,512
2.068,502
2.069,496
2.070,488
2.071,487
2.072,492
2.073,497
2.074,504
2.075,511
2.076,518
2.077,523
2.078,528
2.079,531
2.080,532
2.081,528
2.082,526
2.083,520
2.084,510
2.085,502
2.086,496
2.087,491
2.088,493
2.089,497
2.090,503
2.091,512
2.092,520
2.093,524
2.094,526
2.095,531
2.096,531
2.097,528
2.098,524
2.099,523
2.100,515
2.101,505
2.102,499
2.103,492
2.104,491
2.105,495
2.106,499
2.107,505
2.108,512
2.109,523
2.110,528
2.111,532
2.112,535
2.113,533
2.114,530
2.115,529
2.116,525
2.117,512
2.118,501
2.119,495
2.120,487
2.121,488
2.122,492
2.123,496
2.124,503
2.125,513
2.126,520
2.127,525
2.128,531
2.129,535
2.130,536
2.131,531
2.132,527
2.133,519
2.134,509
2.135,502
2.136,495
2.137,491
2.138,493
2.139,496
2.140,502
2.141,511
2.142,520
2.143,525
2.144,529
2.145,534
2.146,535
2.147,530
2.148,525
2.149,523
2.150,512
2.151,501
2.152,494
2.153,487
2.154,487
2.155,493
2.156,499
2.157,506
2.158,515
2.159,524
2.160,527
2.161,531
2.162,534
2.163,536
2.164,531
2.165,529
2.166,525
2.167,514
2.168,507
2.169,501
2.170,495
2.171,496
2.172,503
2.173,510
2.174,516
2.175,524
2.176,528
2.177,531
2.178,535
2.179,537
2.180,537
2.181,534
2.182,534
2.183,527
2.184,513
2.185,503
2.186,494
2.187,488
2.188,489
2.189,494
2.190,500
2.191,508
2.192,516
2.193,523
2.194,527
2.195,532
2.196,534
2.197,531
2.198,528
2.199,525
2.200,514
2.201,505
2.202,500
2.203,493
2.204,492
2.205,497
2.206,501
2.207,508
2.208,516
2.209,524
2.210,527
2.211,532
2.212,536
2.213,536
2.214,532
2.215,530
2.216,525
2.217,513
2.218,505
2.219,499
2.220,492
2.221,493
2.222,497
2.223,502
2.224,509
2.225,518
2.226,523
2.227,528
2.228,535
2.229,537
2.230,535
2.231,531
2.232,530
2.233,523
2.234,512
2.235,505
2.236,496
2.237,492
2.238,492
2.239,496
2.240,502
2.241,511
2.242,519
2.243,524
2.244,530
2.245,536
2.246,537
2.247,534
2.248,532
2.249,531
2.250,519
2.251,509
2.252,501
2.253,492
2.254,491
2.255,494
2.256,497
2.257,502
2.258,510
2.259,516
2.260,520
2.261,525
2.262,529
2.263,529
2.264,525
2.265,524
2.266,519
2.267,509
2.268,502
2.269,495
2.270,490
2.271,492
2.272,497
2.273,503
2.274,511
2.275,520
2.276,526
2.277,531
2.278,536
2.279,540
2.280,537
2.281,531
2.282,528
2.283,519
2.284,509
2.285,502
2.286,495
2.287,493
2.288,497
2.289,500
2.290,506
2.291,512
2.292,519
2.293,524
2.294,529
2.295,533
2.296,534
2.297,532
2.298,531
2.299,530
2.300,519
2.301,510
2.302,502
2.303,493
2.304,492
2.305,497
2.306,502
2.307,508
2.308,517
2.309,525
2.310,527
2.311,532
2.312,536
2.313,536
2.314,532
2.315,530
2.316,525
2.317,516
2.318,510
2.319,504
2.320,497
2.321,498
2.322,500
2.323,504
2.324,512
2.325,520
2.326,525
2.327,529
2.328,535
2.329,537
2.330,536
2.331,533
2.332,531
2.333,523
2.334,514
2.335,506
2.336,496
2.337,493
2.338,495
2.339,499
2.340,506
2.341,514
2.342,521
2.343,526
2.344,533
2.345,537
2.346,537
2.347,532
2.348,528
2.349,523
2.350,511
2.351,501
2.352,493
2.353,484
2.354,484
2.355,488
2.356,492
2.357,500
2.358,511
2.359,519
2.360,526
2.361,533
2.362,536
2.363,536
2.364,531
2.365,529
2.366,523
2.367,513
2.368,504
2.369,497
2.370,491
2.371,491
2.372,494
2.373,499
2.374,506
2.375,515
2.376,520
2.377,525
2.378,529
2.379,529
2.380,526
2.381,525
2.382,525
2.383,517
2.384,509
2.385,504
2.386,495
2.387,491
2.388,493
2.389,495
2.390,500
2.391,507
2.392,514
2.393,520
2.394,528
2.395,534
2.396,537
2.397,535
2.398,533
2.399,530
2.400,519
2.401,510
2.402,503
2.403,496
2.404,494
2.405,496
2.406,498
2.407,505
2.408,513
2.409,518
2.410,521
2.411,524
2.412,528
2.413,530
2.414,528
2.415,527
2.416,519
2.417,508
2.418,501
2.419,494
2.420,490
2.421,492
2.422,495
2.423,500
2.424,508
2.425,517
2.426,523
2.427,528
2.428,531
2.429,533
2.430,531
2.431,530
2.432,530
2.433,521
2.434,513
2.435,506
2.436,496
2.437,494
2.438,495
2.439,496
2.440,503
2.441,511
2.442,516
2.443,519
2.444,526
2.445,531
2.446,531
2.447,526
2.448,523
2.449,518
2.450,507
2.451,500
2.452,494
2.453,488
2.454,489
2.455,492
2.456,496
2.457,504
2.458,513
2.459,522
2.460,529
2.461,536
2.462,539
2.463,537
2.464,533
2.465,532
2.466,523
2.467,513
2.468,507
2.469,499
2.470,494
2.471,495
2.472,498
2.473,503
2.474,508
2.475,514
2.476,519
2.477,522
2.478,525
2.479,527
2.480,525
2.481,524
2.482,522
2.483,512
2.484,504
2.485,499
2.486,493
2.487,494
2.488,497
2.489,502
2.490,511
2.491,520
2.492,529
2.493,538
2.494,546
2.495,552
2.496,551
2.497,545
2.498,542
2.499,534
2.500,520
2.501,511
2.502,503
2.503,496
2.504,495
2.505,497
2.506,500
2.507,506
2.508,515
2.509,522
2.510,526
2.511,531
2.512,533
2.513,531
2.514,529
2.515,528
2.516,519
2.517,508
2.518,500
2.519,489
2.520,484
2.521,485
2.522,488
2.523,494
2.524,502
2.525,510
2.526,515
2.527,521
2.528,524
2.529,525
2.530,522
2.531,520
2.532,518
2.533,507
2.534,499
2.535,493
2.536,484
2.537,483
2.538,484
2.539,486
2.540,490
2.541,496
2.542,500
2.543,504
2.544,511
2.545,516
2.546,518
2.547,517
2.548,518
2.549,515
2.550,506
2.551,498
2.552,490
2.553,484
2.554,484
2.555,487
2.556,494
2.557,500
2.558,509
2.559,514
2.560,519
2.561,524
2.562,525
2.563,522
2.564,520
2.565,521
2.566,514
2.567,505
2.568,500
2.569,490
2.570,486
2.571,487
2.572,491
2.573,496
2.574,501
2.575,507
2.576,512
2.577,518
2.578,523
2.579,525
2.580,523
2.581,520
2.582,518
2.583,510
2.584,502
2.585,496
2.586,488
2.587,487
2.588,487
2.589,490
2.590,497
2.591,507
2.592,513
2.593,517
2.594,524
2.595,527
2.596,528
2.597,529
2.598,529
2.599,521
2.600,509
2.601,499
2.602,488
2.603,478
2.604,476
2.605,476
2.606,478
2.607,483
2.608,489
2.609,492
2.610,497
2.611,504
2.612,508
2.613,508
2.614,507
2.615,508
2.616,501
2.617,495
2.618,494
2.619,491
2.620,494
2.621,504
2.622,516
2.623,532
2.624,550
2.625,567
2.626,581
2.627,595
2.628,610
2.629,621
2.630,628
2.631,638
2.632,644
2.633,642
2.634,643
2.635,643
2.636,640
2.637,647
2.638,653
2.639,656
2.640,659
2.641,664
2.642,662
2.643,654
2.644,651
2.645,644
2.646,635
2.647,624
2.648,614
2.649,597
2.650,577
2.651,559
2.652,540
2.653,524
2.654,514
2.655,507
2.656,501
2.657,499
2.658,499
2.659,498
2.660,498
2.661,497
2.662,494
2.663,486
2.664,481
2.665,476
2.666,461
2.667,447
2.668,437
2.669,424
2.670,419
2.671,421
2.672,425
2.673,433
2.674,443
2.675,452
2.676,458
2.677,466
2.678,472
2.679,474
2.680,475
2.681,477
2.682,473
2.683,464
2.684,458
2.685,451
2.686,447
2.687,449
2.688,453
2.689,457
2.690,464
2.691,473
2.692,480
2.693,485
2.694,493
2.695,497
2.696,498
2.697,498
2.698,499
2.699,493
2.700,485
2.701,480
2.702,472
2.703,471
2.704,475
2.705,478
2.706,483
2.707,492
2.708,500
2.709,507
2.710,514
2.711,519
2.712,523
2.713,521
2.714,520
2.715,519
2.716,508
2.717,497
2.718,491
2.719,482
2.720,480
2.721,483
2.722,484
2.723,492
2.724,502
2.725,510
2.726,515
2.727,522
2.728,526
2.729,527
2.730,524
2.731,524
2.732,520
2.733,509
2.734,503
2.735,496
2.736,490
2.737,489
2.738,491
2.739,497
2.740,505
2.741,515
2.742,520
2.743,526
2.744,534
2.745,538
2.746,536
2.747,533
2.748,531
2.749,522
2.750,512
2.751,505
2.752,496
2.753,492
2.754,494
2.755,497
2.756,504
2.757,513
2.758,522
2.759,526
2.760,532
2.761,537
2.762,537
2.763,533
2.764,533
2.765,531
2.766,520
2.767,511
2.768,505
2.769,497
2.770,495
2.771,497
2.772,500
2.773,506
2.774,515
2.775,522
2.776,526
2.777,533
2.778,539
2.779,540
2.780,538
2.781,539
2.782,535
2.783,524
2.784,516
2.785,507
2.786,500
2.787,501
2.788,504
2.789,509
2.790,516
2.791,525
2.792,530
2.793,537
2.794,545
2.795,550
2.796,550
2.797,550
2.798,549
2.799,540
2.800,529
2.801,523
2.802,515
2.803,512
2.804,513
2.805,515
2.806,521
2.807,529
2.808,536
2.809,541
2.810,548
2.811,553
2.812,556
2.813,553
2.814,555
2.815,553
2.816,543
2.817,536
2.818,530
2.819,522
2.820,521
2.821,523
2.822,527
2.823,534
2.824,544
2.825,552
2.826,558
2.827,565
2.828,569
2.829,570
2.830,569
2.831,569
2.832,562
2.833,550
2.834,542
2.835,535
2.836,531
2.837,532
2.838,536
2.839,541
2.840,547
2.841,555
2.842,562
2.843,568
2.844,575
2.845,579
2.846,580
2.847,582
2.848,582
2.849,574
2.850,566
2.851,561
2.852,552
2.853,548
2.854,548
2.855,550
2.856,556
2.857,561
2.858,564
2.859,567
2.860,572
2.861,575
2.862,576
2.863,575
2.864,578
2.865,575
2.866,563
2.867,556
2.868,547
2.869,540
2.870,537
2.871,537
2.872,538
2.873,543
2.874,553
2.875,557
2.876,560
2.877,566
2.878,572
2.879,573
2.880,570
2.881,567
2.882,557
2.883,545
2.884,535
2.885,523
2.886,518
2.887,518
2.888,519
2.889,523
2.890,529
2.891,537
2.892,540
2.893,544
2.894,549
2.895,551
2.896,546
2.897,543
2.898,540
2.899,529
2.900,518
2.901,510
2.902,497
2.903,491
2.904,491
2.905,491
2.906,493
2.907,497
2.908,502
2.909,504
2.910,509
2.911,511
2.912,511
2.913,508
2.914,509
2.915,503
2.916,490
2.917,479
2.918,468
2.919,458
2.920,456
2.921,457
2.922,462
2.923,467
2.924,475
2.925,480
2.926,484
2.927,490
2.928,494
2.929,493
2.930,489
2.931,486
2.932,475
2.933,462
2.934,453
2.935,442
2.936,436
2.937,436
2.938,438
2.939,443
2.940,449
2.941,457
2.942,463
2.943,470
2.944,475
2.945,475
2.946,474
2.947,475
2.948,473
2.949,463
2.950,454
2.951,446
2.952,435
2.953,432
2.954,432
2.955,435
2.956,441
2.957,451
2.958,459
2.959,463
2.960,468
2.961,473
2.962,476
2.963,475
2.964,475
2.965,470
2.966,459
2.967,452
2.968,446
2.969,440
2.970,441
2.971,444
2.972,449
2.973,456
2.974,464
2.975,468
2.976,474
2.977,482
2.978,485
2.979,483
2.980,482
2.981,482
2.982,472
2.983,462
2.984,457
2.985,449
2.986,447
2.987,449
2.988,452
2.989,457
2.990,465
2.991,472
2.992,479
2.993,484
2.994,490
2.995,493
2.996,493
2.997,496
2.998,496
2.999,486
3.000,477
3.001,467
3.002,457
3.003,455
3.004,457
3.005,460
3.006,464
3.007,472
3.008,479
3.009,482
3.010,490
3.011,495
3.012,494
3.013,492
3.014,492
3.015,486
3.016,476
3.017,471
3.018,462
3.019,457
3.020,458
3.021,461
3.022,465
3.023,471
3.024,480
3.025,487
3.026,492
3.027,498
3.028,501
3.029,500
3.030,502
3.031,503
3.032,495
3.033,486
3.034,480
3.035,470
3.036,467
3.037,468
3.038,471
3.039,476
3.040,484
3.041,492
3.042,498
3.043,505
3.044,510
3.045,512
3.046,511
3.047,513
3.048,511
3.049,500
3.050,490
3.051,483
3.052,476
3.053,477
3.054,477
3.055,480
3.056,486
3.057,493
3.058,498
3.059,504
3.060,512
3.061,517
3.062,519
3.063,518
3.064,520
3.065,513
3.066,501
3.067,492
3.068,482
3.069,478
3.070,479
3.071,480
3.072,485
3.073,491
3.074,497
3.075,501
3.076,507
3.077,514
3.078,516
3.079,514
3.080,514
3.081,514
3.082,505
3.083,494
3.084,485
3.085,474
3.086,472
3.087,474
3.088,477
3.089,484
3.090,494
3.091,501
3.092,505
3.093,510
3.094,515
3.095,519
3.096,517
3.097,520
3.098,519
3.099,508
3.100,499
3.101,491
3.102,483
3.103,483
3.104,484
3.105,488
3.106,493
3.107,501
3.108,508
3.109,513
3.110,518
3.111,522
3.112,520
3.113,520
3.114,523
3.115,516
3.116,505
3.117,497
3.118,487
3.119,483
3.120,483
3.121,485
3.122,490
3.123,495
3.124,503
3.125,508
3.126,514
3.127,520
3.128,523
3.129,519
3.130,520
3.131,521
3.132,511
3.133,500
3.134,492
3.135,483
3.136,480
3.137,481
3.138,485
3.139,491
3.140,500
3.141,511
3.142,517
3.143,524
3.144,528
3.145,525
3.146,521
3.147,523
3.148,516
3.149,504
3.150,496
3.151,487
3.152,480
3.153,480
3.154,483
3.155,487
3.156,492
3.157,501
3.158,506
3.159,513
3.160,520
3.161,523
3.162,521
3.163,520
3.164,521
3.165,514
3.166,504
3.167,497
3.168,485
3.169,480
3.170,481
3.171,485
3.172,491
3.173,500
3.174,510
3.175,514
3.176,520
3.177,525
3.178,528
3.179,527
3.180,529
3.181,528
3.182,517
3.183,507
3.184,497
3.185,487
3.186,485
3.187,487
3.188,489
3.189,494
3.190,500
3.191,505
3.192,509
3.193,516
3.194,519
3.195,518
3.196,515
3.197,516
3.198,512
3.199,503
3.200,496
3.201,487
3.202,483
3.203,484
3.204,486
3.205,489
3.206,493
3.207,501
3.208,505
3.209,511
3.210,516
3.211,523
3.212,526
3.213,529
3.214,531
3.215,521
3.216,509
3.217,500
3.218,489
3.219,484
3.220,486
3.221,488
3.222,493
3.223,501
3.224,508
3.225,512
3.226,519
3.227,524
3.228,526
3.229,524
3.230,525
3.231,524
3.232,515
3.233,506
3.234,499
3.235,489
3.236,486
3.237,487
3.238,492
3.239,497
3.240,507
3.241,513
3.242,519
3.243,527
3.244,530
3.245,528
3.246,525
3.247,526
3.248,519
3.249,508
3.250,499
3.251,489
3.252,484
3.253,484
3.254,486
3.255,490
3.256,495
3.257,503
3.258,508
3.259,514
3.260,521
3.261,526
3.262,524
3.263,524
3.264,524
3.265,512
3.266,503
3.267,497
3.268,488
3.269,487
3.270,490
3.271,493
3.272,497
3.273,501
3.274,507
3.275,511
3.276,517
3.277,522
3.278,524
3.279,521
3.280,523
3.281,519
3.282,509
3.283,501
3.284,494
3.285,486
3.286,484
3.287,487
3.288,491
3.289,497
3.290,505
3.291,512
3.292,517
3.293,525
3.294,529
3.295,527
3.296,526
3.297,527
3.298,520
3.299,510
3.300,502
3.301,492
3.302,486
3.303,488
3.304,491
3.305,497
3.306,504
3.307,512
3.308,519
3.309,529
3.310,535
3.311,536
3.312,534
3.313,535
3.314,535
3.315,524
3.316,511
3.317,502
3.318,491
3.319,487
3.320,489
3.321,494
3.322,498
3.323,506
3.324,514
3.325,518
3.326,525
3.327,530
3.328,531
3.329,530
3.330,533
3.331,528
3.332,516
3.333,506
3.334,497
3.335,492
3.336,492
3.337,494
3.338,500
3.339,505
3.340,512
3.341,518
3.342,522
3.343,526
3.344,529
3.345,529
3.346,530
3.347,532
3.348,522
3.349,512
3.350,504
3.351,493
3.352,490
3.353,489
3.354,491
3.355,497
3.356,503
3.357,510
3.358,515
3.359,523
3.360,530
3.361,534
3.362,534
3.363,537
3.364,536
3.365,525
3.366,515
3.367,506
3.368,495
3.369,490
3.370,490
3.371,493
3.372,499
3.373,507
3.374,513
3.375,518
3.376,525
3.377,530
3.378,530
3.379,529
3.380,531
3.381,525
3.382,514
3.383,509
3.384,502
3.385,495
3.386,493
3.387,494
3.388,498
3.389,504
3.390,514
3.391,519
3.392,525
3.393,531
3.394,533
3.395,531
3.396,530
3.397,531
3.398,522
3.399,512
3.400,506
3.401,496
3.402,491
3.403,492
3.404,496
3.405,502
3.406,512
3.407,521
3.408,525
3.409,529
3.410,532
3.411,532
3.412,527
3.413,526
3.414,524
3.415,514
3.416,506
3.417,499
3.418,490
3.419,489
3.420,493
3.421,499
3.422,505
3.423,513
3.424,520
3.425,524
3.426,531
3.427,538
3.428,538
3.429,535
3.430,534
3.431,527
3.432,515
3.433,508
3.434,497
3.435,491
3.436,490
3.437,491
3.438,496
3.439,502
3.440,510
3.441,516
3.442,521
3.443,527
3.444,530
3.445,530
3.446,532
3.447,534
3.448,526
3.449,516
3.450,509
3.451,499
3.452,494
3.453,496
3.454,498
3.455,502
3.456,508
3.457,515
3.458,519
3.459,527
3.460,531
3.461,531
3.462,530
3.463,532
3.464,528
3.465,515
3.466,507
3.467,500
3.468,491
3.469,491
3.470,494
3.471,499
3.472,506
3.473,515
3.474,521
3.475,525
3.476,531
3.477,535
3.478,534
3.479,533
3.480,533
3.481,525
3.482,514
3.483,507
3.484,496
3.485,491
3.486,494
3.487,496
3.488,503
3.489,511
3.490,519
3.491,526
3.492,532
3.493,536
3.494,537
3.495,536
3.496,537
3.497,535
3.498,524
3.499,514
3.500,505
3.501,493
3.502,489
3.503,491
3.504,494
3.505,499
3.506,508
3.507,515
3.508,520
3.509,529
3.510,536
3.511,538
3.512,535
3.513,537
3.514,533
3.515,521
3.516,511
3.517,500
3.518,492
3.519,492
3.520,494
3.521,498
3.522,504
3.523,512
3.524,519
3.525,525
3.526,533
3.527,539
3.528,538
3.529,537
3.530,536
3.531,527
3.532,517
3.533,512
3.534,502
3.535,497
3.536,499
3.537,502
3.538,508
3.539,513
3.540,519
3.541,526
3.542,535
3.543,542
3.544,544
3.545,542
3.546,545
3.547,547
3.548,539
3.549,528
3.550,518
3.551,506
3.552,500
3.553,500
3.554,502
3.555,505
3.556,511
3.557,516
3.558,520
3.559,528
3.560,532
3.561,533
3.562,529
3.563,529
3.564,525
3.565,515
3.566,506
3.567,496
3.568,488
3.569,489
3.570,493
3.571,497
3.572,500
3.573,507
3.574,512
3.575,518
3.576,525
3.577,527
3.578,526
3.579,527
3.580,528
3.581,519
3.582,507
3.583,500
3.584,490
3.585,484
3.586,485
3.587,487
3.588,493
3.589,500
3.590,504
3.591,507
3.592,514
3.593,519
3.594,522
3.595,521
3.596,524
3.597,522
3.598,512
3.599,503
3.600,496
3.601,489
3.602,487
3.603,487
3.604,490
3.605,493
3.606,500
3.607,507
3.608,512
3.609,520
3.610,524
3.611,523
3.612,521
3.613,523
3.614,519
3.615,509
3.616,502
3.617,493
3.618,487
3.619,485
3.620,485
3.621,490
3.622,496
3.623,504
3.624,512
3.625,519
3.626,527
3.627,527
3.628,526
3.629,526
3.630,526
3.631,516
3.632,504
3.633,496
3.634,485
3.635,481
3.636,485
3.637,488
3.638,494
3.639,504
3.640,511
3.641,514
3.642,520
3.643,525
3.644,526
3.645,521
3.646,521
3.647,518
3.648,507
3.649,497
3.650,488
3.651,480
3.652,478
3.653,480
3.654,483
3.655,489
3.656,499
3.657,508
3.658,514
3.659,524
3.660,529
3.661,531
3.662,533
3.663,540
3.664,540
3.665,537
3.666,538
3.667,536
3.668,537
3.669,545
3.670,555
3.671,569
3.672,588
3.673,608
3.674,625
3.675,640
3.676,654
3.677,667
3.678,673
3.679,679
3.680,684
3.681,679
3.682,672
3.683,663
3.684,649
3.685,640
3.686,634
3.687,629
3.688,627
3.689,626
3.690,623
3.691,616
3.692,612
3.693,606
3.694,597
3.695,584
3.696,575
3.697,564
3.698,542
3.699,524
3.700,505
3.701,488
3.702,480
3.703,476
3.704,474
3.705,475
3.706,478
3.707,480
3.708,480
3.709,481
3.710,478
3.711,470
3.712,464
3.713,462
3.714,453
3.715,442
3.716,435
3.717,427
3.718,424
3.719,427
3.720,432
3.721,440
3.722,449
3.723,458
3.724,466
3.725,474
3.726,481
3.727,486
3.728,485
3.729,489
3.730,491
3.731,481
3.732,472
3.733,466
3.734,457
3.735,454
3.736,455
3.737,459
3.738,465
3.739,474
3.740,482
3.741,487
3.742,496
3.743,503
3.744,507
3.745,507
3.746,509
3.747,507
3.748,498
3.749,491
3.750,483
3.751,477
3.752,478
3.753,483
3.754,490
3.755,495
3.756,503
3.757,511
3.758,517
3.759,526
3.760,530
3.761,531
3.762,529
3.763,527
3.764,519
3.765,508
3.766,502
3.767,493
3.768,489
3.769,490
3.770,492
3.771,499
3.772,505
3.773,514
3.774,521
3.775,526
3.776,531
3.777,533
3.778,530
3.779,532
3.780,532
3.781,521
3.782,511
3.783,503
3.784,493
3.785,490
3.786,494
3.787,497
3.788,502
3.789,510
3.790,516
3.791,521
3.792,529
3.793,534
3.794,534
3.795,531
3.796,533
3.797,528
3.798,517
3.799,509
3.800,501
3.801,495
3.802,496
3.803,497
3.804,502
3.805,508
3.806,517
3.807,525
3.808,532
3.809,537
3.810,539
3.811,537
3.812,537
3.813,537
3.814,528
3.815,518
3.816,510
3.817,497
3.818,492
3.819,496
3.820,500
3.821,508
3.822,516
3.823,524
3.824,530
3.825,539
3.826,544
3.827,545
3.828,542
3.829,543
3.830,542
3.831,533
3.832,525
3.833,519
3.834,510
3.835,508
3.836,509
3.837,512
3.838,518
3.839,526
3.840,532
3.841,535
3.842,542
3.843,546
3.844,547
3.845,547
3.846,549
3.847,544
3.848,533
3.849,526
3.850,517
3.851,511
3.852,512
3.853,516
3.854,523
3.855,530
3.856,539
3.857,545
3.858,551
3.859,558
3.860,561
3.861,560
3.862,560
3.863,559
3.864,549
3.865,538
3.866,531
3.867,521
3.868,518
3.869,519
3.870,522
3.871,528
3.872,535
3.873,544
3.874,551
3.875,559
3.876,563
3.877,567
3.878,568
3.879,573
3.880,572
3.881,561
3.882,552
3.883,543
3.884,535
3.885,534
3.886,537
3.887,542
3.888,548
3.889,558
3.890,565
3.891,570
3.892,577
3.893,580
3.894,578
3.895,575
3.896,577
3.897,569
3.898,558
3.899,551
3.900,540
3.901,534
3.902,533
3.903,535
3.904,542
3.905,548
3.906,557
3.907,563
3.908,569
3.909,575
3.910,576
3.911,575
3.912,576
3.913,576
3.914,566
3.915,555
3.916,546
3.917,536
3.918,531
3.919,530
3.920,530
3.921,532
3.922,540
3.923,547
3.924,553
3.925,559
3.926,562
3.927,562
3.928,559
3.929,559
3.930,552
3.931,540
3.932,529
3.933,519
3.934,509
3.935,507
3.936,509
3.937,512
3.938,515
3.939,522
3.940,527
3.941,532
3.942,537
3.943,540
3.944,537
3.945,533
3.946,532
3.947,521
3.948,507
3.949,496
3.950,483
3.951,476
3.952,476
3.953,476
3.954,480
3.955,483
3.956,489
3.957,492
3.958,497
3.959,502
3.960,503
3.961,499
3.962,497
3.963,495
3.964,481
3.965,470
3.966,461
3.967,451
3.968,447
3.969,448
3.970,449
3.971,454
3.972,460
3.973,466
3.974,472
3.975,478
3.976,481
3.977,483
3.978,479
3.979,478
3.980,472
3.981,459
3.982,447
3.983,435
3.984,427
3.985,427
3.986,430
3.987,435
3.988,441
3.989,450
3.990,455
3.991,461
3.992,468
3.993,471
3.994,472
3.995,472
3.996,472
3.997,463
3.998,453
3.999,445
4.000,434
4.001,429
4.002,431
4.003,435
4.004,441
4.005,450
4.006,460
4.007,465
4.008,475
4.009,482
4.010,483
4.011,479
4.012,479
4.013,478
4.014,466
4.015,456
4.016,449
4.017,439
4.018,437
4.019,439
4.020,443
4.021,447
4.022,454
4.023,461
4.024,466
4.025,476
4.026,482
4.027,486
4.028,485
4.029,487
4.030,482
4.031,472
4.032,464
4.033,455
4.034,448
4.035,448
4.036,450
4.037,456
4.038,463
4.039,472
4.040,479
4.041,485
4.042,489
4.043,491
4.044,491
4.045,493
4.046,496
4.047,486
4.048,475
4.049,469
4.050,459
4.051,455
4.052,458
4.053,460
4.054,467
4.055,475
4.056,484
4.057,489
4.058,496
4.059,502
4.060,505
4.061,503
4.062,504
4.063,502
4.064,492
4.065,483
4.066,473
4.067,463
4.068,462
4.069,465
4.070,469
4.071,475
4.072,484
4.073,492
4.074,498
4.075,504
4.076,507
4.077,507
4.078,504
4.079,505
4.080,499
4.081,490
4.082,483
4.083,474
4.084,470
4.085,470
4.086,472
4.087,475
4.088,478
4.089,487
4.090,493
4.091,501
4.092,509
4.093,513
4.094,513
4.095,514
4.096,515
4.097,506
4.098,498
4.099,492
4.100,482
4.101,476
4.102,477
4.103,480
4.104,484
4.105,491
4.106,499
4.107,505
4.108,513
4.109,518
4.110,519
4.111,517
4.112,518
4.113,515
4.114,502
4.115,493
4.116,486
4.117,477
4.118,475
4.119,476
4.120,482
4.121,488
4.122,498
4.123,504
4.124,509
4.125,517
4.126,522
4.127,523
4.128,521
4.129,522
4.130,514
4.131,505
4.132,499
4.133,490
4.134,485
4.135,484
4.136,486
4.137,490
4.138,495
4.139,502
4.140,506
4.141,513
4.142,520
4.143,524
4.144,523
4.145,525
4.146,526
4.147,516
4.148,507
4.149,499
4.150,489
4.151,486
4.152,487
4.153,490
4.154,494
4.155,501
4.156,508
4.157,512
4.158,518
4.159,521
4.160,522
4.161,521
4.162,524
4.163,521
4.164,509
4.165,499
4.166,490
4.167,483
4.168,484
4.169,487
4.170,489
4.171,493
4.172,501
4.173,510
4.174,516
4.175,523
4.176,527
4.177,526
4.178,524
4.179,524
4.180,516
4.181,506
4.182,500
4.183,492
4.184,489
4.185,492
4.186,493
4.187,498
4.188,504
4.189,510
4.190,513
4.191,518
4.192,524
4.193,526
4.194,525
4.195,527
4.196,527
4.197,517
4.198,507
4.199,498
4.200,486
4.201,483
4.202,485
4.203,489
4.204,495
4.205,504
4.206,512
4.207,515
4.208,520
4.209,525
4.210,527
4.211,524
4.212,524
4.213,519
4.214,508
4.215,501
4.216,492
4.217,486
4.218,487
4.219,490
4.220,495
4.221,500
4.222,508
4.223,513
4.224,519
4.225,527
4.226,531
4.227,528
4.228,527
4.229,527
4.230,518
4.231,508
4.232,501
4.233,490
4.234,486
4.235,489
4.236,493
4.237,498
4.238,505
4.239,512
4.240,516
4.241,522
4.242,525
4.243,525
4.244,523
4.245,524
4.246,525
4.247,516
4.248,508
4.249,500
4.250,489
4.251,487
4.252,489
4.253,493
4.254,498
4.255,506
4.256,514
4.257,519
4.258,526
4.259,529
4.260,530
4.261,529
4.262,531
4.263,524
4.264,512
4.265,502
4.266,491
4.267,482
4.268,480
4.269,481
4.270,487
4.271,495
4.272,506
4.273,515
4.274,522
4.275,529
4.276,532
4.277,531
4.278,530
4.279,529
4.280,519
4.281,509
4.282,502
4.283,492
4.284,487
4.285,489
4.286,494
4.287,503
4.288,511
4.289,519
4.290,523
4.291,530
4.292,535
4.293,535
4.294,531
4.295,531
4.296,528
4.297,516
4.298,506
4.299,498
4.300,490
4.301,490
4.302,493
4.303,499
4.304,504
4.305,513
4.306,521
4.307,527
4.308,534
4.309,539
4.310,539
4.311,535
4.312,533
4.313,524
4.314,511
4.315,504
4.316,495
4.317,488
4.318,488
4.319,489
4.320,494
4.321,500
4.322,510
4.323,516
4.324,524
4.325,529
4.326,531
4.327,530
4.328,531
4.329,530
4.330,521
4.331,511
4.332,505
4.333,495
4.334,489
4.335,490
4.336,492
4.337,497
4.338,506
4.339,514
4.340,520
4.341,527
4.342,532
4.343,534
4.344,531
4.345,535
4.346,533
4.347,523
4.348,512
4.349,502
4.350,490
4.351,487
4.352,492
4.353,497
4.354,502
4.355,510
4.356,515
4.357,519
4.358,528
4.359,534
4.360,533
4.361,530
4.362,531
4.363,525
4.364,515
4.365,508
4.366,500
4.367,495
4.368,496
4.369,497
4.370,502
4.371,510
4.372,518
4.373,522
4.374,529
4.375,535
4.376,537
4.377,535
4.378,535
4.379,534
4.380,525
4.381,516
4.382,509
4.383,497
4.384,494
4.385,496
4.386,501
4.387,508
4.388,516
4.389,524
4.390,528
4.391,535
4.392,539
4.393,538
4.394,533
4.395,533
4.396,529
4.397,517
4.398,507
4.399,498
4.400,490
4.401,489
4.402,491
4.403,496
4.404,501
4.405,511
4.406,519
4.407,524
4.408,530
4.409,536
4.410,537
4.411,536
4.412,538
4.413,530
4.414,518
4.415,510
4.416,500
4.417,494
4.418,494
4.419,496
4.420,500
4.421,506
4.422,514
4.423,519
4.424,526
4.425,532
4.426,535
4.427,534
4.428,536
4.429,536
4.430,524
4.431,515
4.432,508
4.433,497
4.434,493
4.435,496
4.436,500
4.437,505
4.438,513
4.439,519
4.440,522
4.441,528
4.442,532
4.443,533
4.444,531
4.445,533
4.446,529
4.447,518
4.448,510
4.449,499
4.450,491
4.451,490
4.452,492
4.453,498
4.454,505
4.455,513
4.456,519
4.457,525
4.458,531
4.459,534
4.460,533
4.461,533
4.462,533
4.463,524
4.464,514
4.465,508
4.466,499
4.467,497
4.468,499
4.469,502
4.470,507
4.471,513
4.472,518
4.473,521
4.474,528
4.475,535
4.476,537
4.477,535
4.478,536
4.479,533
4.480,521
4.481,510
4.482,502
4.483,494
4.484,493
4.485,497
4.486,501
4.487,506
4.488,514
4.489,520
4.490,524
4.491,532
4.492,537
4.493,539
4.494,537
4.495,538
4.496,531
4.497,519
4.498,510
4.499,500
4.500,494
4.501,493
4.502,496
4.503,500
4.504,507
4.505,516
4.506,524
4.507,529
4.508,535
4.509,538
4.510,536
4.511,535
4.512,536
4.513,527
4.514,517
4.515,510
4.516,500
4.517,497
4.518,500
4.519,503
4.520,508
4.521,513
4.522,521
4.523,526
4.524,532
4.525,536
4.526,535
4.527,531
4.528,530
4.529,529
4.530,518
4.531,508
4.532,500
4.533,491
4.534,490
4.535,496
4.536,502
4.537,510
4.538,520
4.539,527
4.540,532
4.541,540
4.542,545
4.543,545
4.544,543
4.545,544
4.546,539
4.547,530
4.548,523
4.549,513
4.550,506
4.551,504
4.552,506
4.553,510
4.554,513
4.555,521
4.556,527
4.557,535
4.558,543
4.559,547
4.560,546
4.561,545
4.562,544
4.563,534
4.564,525
4.565,517
4.566,504
4.567,497
4.568,497
4.569,499
4.570,505
4.571,512
4.572,519
4.573,524
4.574,529
4.575,531
4.576,530
4.577,526
4.578,527
4.579,524
4.580,512
4.581,504
4.582,496
4.583,488
4.584,487
4.585,488
4.586,492
4.587,496
4.588,504
4.589,511
4.590,517
4.591,526
4.592,530
4.593,530
4.594,526
4.595,524
4.596,515
4.597,504
4.598,495
4.599,486
4.600,480
4.601,483
4.602,487
4.603,491
4.604,498
4.605,507
4.606,512
4.607,518
4.608,524
4.609,526
4.610,523
4.611,524
4.612,523
4.613,513
4.614,502
4.615,494
4.616,484
4.617,482
4.618,485
4.619,488
4.620,493
4.621,501
4.622,509
4.623,515
4.624,523
4.625,528
4.626,529
4.627,527
4.628,527
4.629,524
4.630,512
4.631,503
4.632,490
4.633,480
4.634,481
4.635,485
4.636,492
4.637,499
4.638,508
4.639,514
4.640,518
4.641,525
4.642,530
4.643,531
4.644,530
4.645,530
4.646,519
4.647,507
4.648,499
4.649,491
4.650,486
4.651,487
4.652,488
4.653,492
4.654,498
4.655,508
4.656,513
4.657,518
4.658,522
4.659,522
4.660,518
4.661,515
4.662,512
4.663,503
4.664,494
4.665,487
4.666,476
4.667,474
4.668,478
4.669,483
4.670,491
4.671,502
4.672,512
4.673,523
4.674,536
4.675,549
4.676,559
4.677,565
4.678,575
4.679,582
4.680,580
4.681,579
4.682,576
4.683,576
4.684,583
4.685,593
4.686,605
4.687,619
4.688,636
4.689,650
4.690,662
4.691,677
4.692,685
4.693,685
4.694,681
4.695,675
4.696,658
4.697,639
4.698,623
4.699,604
4.700,591
4.701,589
4.702,585
4.703,580
4.704,576
4.705,573
4.706,568
4.707,563
4.708,557
4.709,550
4.710,539
4.711,530
4.712,519
4.713,499
4.714,482
4.715,468
4.716,451
4.717,444
4.718,441
4.719,440
4.720,441
4.721,447
4.722,453
4.723,455
4.724,463
4.725,467
4.726,467
4.727,466
4.728,470
4.729,467
4.730,458
4.731,452
4.732,443
4.733,435
4.734,437
4.735,443
4.736,451
4.737,460
4.738,470
4.739,478
4.740,486
4.741,494
4.742,497
4.743,499
4.744,502
4.745,505
4.746,495
4.747,482
4.748,473
4.749,461
4.750,456
4.751,458
4.752,463
4.753,472
4.754,482
4.755,494
4.756,501
4.757,510
4.758,517
4.759,522
4.760,521
4.761,523
4.762,520
4.763,509
4.764,498
4.765,490
4.766,482
4.767,482
4.768,487
4.769,493
4.770,500
4.771,509
4.772,515
4.773,518
4.774,527
4.775,531
4.776,531
4.777,529
4.778,531
4.779,527
4.780,515
4.781,506
4.782,496
4.783,489
4.784,490
4.785,495
4.786,500
4.787,504
4.788,512
4.789,519
4.790,525
4.791,532
4.792,536
4.793,535
4.794,536
4.795,537
4.796,530
4.797,521
4.798,514
4.799,501
4.800,497
4.801,498
4.802,500
4.803,507
4.804,515
4.805,523
4.806,526
4.807,530
4.808,535
4.809,536
4.810,535
4.811,537
4.812,535
4.813,525
4.814,518
4.815,511
4.816,503
4.817,502
4.818,505
4.819,511
4.820,516
4.821,525
4.822,530
4.823,533
4.824,540
4.825,543
4.826,544
4.827,543
4.828,544
4.829,538
4.830,526
4.831,516
4.832,506
4.833,500
4.834,499
4.835,502
4.836,509
4.837,516
4.838,524
4.839,531
4.840,539
4.841,545
4.842,548
4.843,547
4.844,547
4.845,548
4.846,540
4.847,533
4.848,526
4.849,517
4.850,514
4.851,516
4.852,519
4.853,524
4.854,531
4.855,539
4.856,545
4.857,552
4.858,557
4.859,559
4.860,556
4.861,555
4.862,553
4.863,543
4.864,535
4.865,527
4.866,518
4.867,516
4.868,520
4.869,524
4.870,530
4.871,542
4.872,550
4.873,558
4.874,566
4.875,569
4.876,568
4.877,566
4.878,566
4.879,558
4.880,545
4.881,537
4.882,530
4.883,527
4.884,529
4.885,534
4.886,542
4.887,551
4.888,560
4.889,564
4.890,569
4.891,574
4.892,578
4.893,578
4.894,577
4.895,576
4.896,565
4.897,555
4.898,547
4.899,538
4.900,536
4.901,540
4.902,544
4.903,551
4.904,560
4.905,567
4.906,573
4.907,582
4.908,588
4.909,589
4.910,585
4.911,590
4.912,587
4.913,574
4.914,563
4.915,552
4.916,543
4.917,543
4.918,543
4.919,544
4.920,548
4.921,557
4.922,563
4.923,568
4.924,575
4.925,579
4.926,577
4.927,575
4.928,574
4.929,565
4.930,555
4.931,547
4.932,536
4.933,530
4.934,531
4.935,533
4.936,538
4.937,543
4.938,549
4.939,553
4.940,557
4.941,561
4.942,561
4.943,557
4.944,556
4.945,553
4.946,541
4.947,531
4.948,522
4.949,510
4.950,503
4.951,503
4.952,503
4.953,508
4.954,516
4.955,521
4.956,523
4.957,527
4.958,529
4.959,528
4.960,522
4.961,520
4.962,513
4.963,500
4.964,489
4.965,477
4.966,467
4.967,464
4.968,464
4.969,468
4.970,473
4.971,481
4.972,486
4.973,490
4.974,497
4.975,500
4.976,496
4.977,492
4.978,491
4.979,480
4.980,468
4.981,459
4.982,448
4.983,443
4.984,443
4.985,445
4.986,451
4.987,456
4.988,462
4.989,466
4.990,472
4.991,477
4.992,479
4.993,475
4.994,473
4.995,470
4.996,458
4.997,448
4.998,440
4.999,429
5.000,426
5.001,428
5.002,433
5.003,439
5.004,448
5.005,456
5.006,461
5.007,467
5.008,472
5.009,473
5.010,472
5.011,472
5.012,466
5.013,454
5.014,447
5.015,441
5.016,435
5.017,437
5.018,442
5.019,448
5.020,453
5.021,460
5.022,465
5.023,468
5.024,474
5.025,476
5.026,475
5.027,475
5.028,477
5.029,469
5.030,458
5.031,453
5.032,443
5.033,438
5.034,440
5.035,444
5.036,451
5.037,459
5.038,467
5.039,473
5.040,482
5.041,490
5.042,494
5.043,494
5.044,495
5.045,489
5.046,474
5.047,461
5.048,451
5.049,441
5.050,442
5.051,447
5.052,453
5.053,461
5.054,471
5.055,477
5.056,481
5.057,487
5.058,491
5.059,491
5.060,490
5.061,492
5.062,486
5.063,475
5.064,468
5.065,459
5.066,454
5.067,454
5.068,459
5.069,463
5.070,470
5.071,480
5.072,487
5.073,494
5.074,502
5.075,505
5.076,504
5.077,502
5.078,502
5.079,491
5.080,481
5.081,474
5.082,464
5.083,461
5.084,465
5.085,469
5.086,475
5.087,482
5.088,490
5.089,494
5.090,499
5.091,504
5.092,506
5.093,504
5.094,505
5.095,503
5.096,493
5.097,484
5.098,474
5.099,466
5.100,465
5.101,469
5.102,474
5.103,481
5.104,490
5.105,499
5.106,504
5.107,511
5.108,513
5.109,512
5.110,510
5.111,511
5.112,504
5.113,493
5.114,486
5.115,478
5.116,473
5.117,473
5.118,474
5.119,480
5.120,486
5.121,495
5.122,502
5.123,508
5.124,514
5.125,516
5.126,513
5.127,512
5.128,511
5.129,500
5.130,490
5.131,482
5.132,471
5.133,468
5.134,471
5.135,477
5.136,484
5.137,492
5.138,501
5.139,507
5.140,515
5.141,519
5.142,519
5.143,516
5.144,518
5.145,515
5.146,504
5.147,496
5.148,489
5.149,480
5.150,479
5.151,481
5.152,487
5.153,493
5.154,504
5.155,512
5.156,517
5.157,524
5.158,527
5.159,526
5.160,525
5.161,527
5.162,519
5.163,507
5.164,498
5.165,487
5.166,480
5.167,482
5.168,486
5.169,491
5.170,496
5.171,504
5.172,510
5.173,515
5.174,521
5.175,523
5.176,520
5.177,521
5.178,521
5.179,510
5.180,499
5.181,493
5.182,483
5.183,482
5.184,485
5.185,487
5.186,493
5.187,500
5.188,507
5.189,511
5.190,518
5.191,523
5.192,524
5.193,522
5.194,522
5.195,518
5.196,506
5.197,498
5.198,490
5.199,483
5.200,484
5.201,487
5.202,492
5.203,497
5.204,507
5.205,515
5.206,519
5.207,525
5.208,527
5.209,526
5.210,524
5.211,525
5.212,517
5.213,505
5.214,497
5.215,488
5.216,484
5.217,485
5.218,487
5.219,494
5.220,502
5.221,511
5.222,516
5.223,522
5.224,528
5.225,530
5.226,528
5.227,529
5.228,527
5.229,515
5.230,505
5.231,497
5.232,487
5.233,485
5.234,489
5.235,495
5.236,502
5.237,510
5.238,516
5.239,519
5.240,525
5.241,529
5.242,529
5.243,526
5.244,528
5.245,523
5.246,511
5.247,502
5.248,493
5.249,485
5.250,486
5.251,489
5.252,495
5.253,502
5.254,512
5.255,519
5.256,526
5.257,533
5.258,533
5.259,530
5.260,526
5.261,524
5.262,513
5.263,503
5.264,496
5.265,485
5.266,481
5.267,484
5.268,487
5.269,496
5.270,504
5.271,513
5.272,519
5.273,525
5.274,529
5.275,531
5.276,530
5.277,531
5.278,529
5.279,518
5.280,506
5.281,498
5.282,489
5.283,487
5.284,492
5.285,497
5.286,502
5.287,510
5.288,517
5.289,523
5.290,531
5.291,536
5.292,536
5.293,533
5.294,533
5.295,527
5.296,515
5.297,504
5.298,494
5.299,486
5.300,487
5.301,491
5.302,497
5.303,503
5.304,511
5.305,518
5.306,524
5.307,530
5.308,533
5.309,534
5.310,534
5.311,534
5.312,524
5.313,512
5.314,504
5.315,495
5.316,491
5.317,491
5.318,492
5.319,498
5.320,505
5.321,513
5.322,519
5.323,527
5.324,533
5.325,535
5.326,532
5.327,531
5.328,528
5.329,515
5.330,505
5.331,499
5.332,491
5.333,488
5.334,489
5.335,493
5.336,499
5.337,508
5.338,515
5.339,521
5.340,530
5.341,536
5.342,536
5.343,534
5.344,536
5.345,531
5.346,521
5.347,512
5.348,500
5.349,492
5.350,494
5.351,498
5.352,502
5.353,505
5.354,511
5.355,516
5.356,521
5.357,528
5.358,530
5.359,528
5.360,527
5.361,526
5.362,515
5.363,504
5.364,498
5.365,491
5.366,490
5.367,493
5.368,496
5.369,502
5.370,509
5.371,517
5.372,523
5.373,529
5.374,532
5.375,534
5.376,533
5.377,535
5.378,532
5.379,519
5.380,509
5.381,502
5.382,494
5.383,494
5.384,496
5.385,499
5.386,503
5.387,511
5.388,518
5.389,523
5.390,530
5.391,534
5.392,535
5.393,534
5.394,534
5.395,527
5.396,515
5.397,507
5.398,497
5.399,490
5.400,491
5.401,494
5.402,500
5.403,507
5.404,517
5.405,524
5.406,528
5.407,533
5.408,536
5.409,536
5.410,535
5.411,534
5.412,522
5.413,510
5.414,502
5.415,490
5.416,488
5.417,491
5.418,494
5.419,500
5.420,508
5.421,515
5.422,522
5.423,530
5.424,538
5.425,541
5.426,537
5.427,537
5.428,533
5.429,520
5.430,509
5.431,499
5.432,489
5.433,489
5.434,493
5.435,498
5.436,503
5.437,512
5.438,518
5.439,523
5.440,531
5.441,536
5.442,537
5.443,537
5.444,541
5.445,535
5.446,525
5.447,518
5.448,508
5.449,499
5.450,496
5.451,495
5.452,498
5.453,503
5.454,509
5.455,515
5.456,522
5.457,527
5.458,529
5.459,526
5.460,526
5.461,527
5.462,521
5.463,513
5.464,507
5.465,494
5.466,492
5.467,496
5.468,501
5.469,507
5.470,515
5.471,522
5.472,528
5.473,535
5.474,538
5.475,537
5.476,533
5.477,533
5.478,528
5.479,516
5.480,507
5.481,497
5.482,489
5.483,489
5.484,493
5.485,499
5.486,506
5.487,516
5.488,523
5.489,528
5.490,536
5.491,540
5.492,537
5.493,534
5.494,533
5.495,524
5.496,512
5.497,505
5.498,494
5.499,489
5.500,488
5.501,491
5.502,498
5.503,506
5.504,515
5.505,520
5.506,527
5.507,533
5.508,536
5.509,534
5.510,533
5.511,532
5.512,522
5.513,511
5.514,503
5.515,492
5.516,491
5.517,494
5.518,497
5.519,502
5.520,509
5.521,515
5.522,519
5.523,526
5.524,531
5.525,532
5.526,530
5.527,532
5.528,527
5.529,514
5.530,505
5.531,497
5.532,491
5.533,491
5.534,494
5.535,500
5.536,507
5.537,516
5.538,524
5.539,530
5.540,537
5.541,541
5.542,540
5.543,538
5.544,540
5.545,532
5.546,521
5.547,513
5.548,503
5.549,499
5.550,500
5.551,502
5.552,508
5.553,513
5.554,521
5.555,526
5.556,531
5.557,536
5.558,537
5.559,534
5.560,534
5.561,533
5.562,522
5.563,513
5.564,506
5.565,497
5.566,496
5.567,500
5.568,506
5.569,513
5.570,523
5.571,531
5.572,536
5.573,544
5.574,548
5.575,549
5.576,546
5.577,548
5.578,542
5.579,528
5.580,519
5.581,510
5.582,504
5.583,506
5.584,508
5.585,513
5.586,519
5.587,528
5.588,535
5.589,540
5.590,547
5.591,549
5.592,547
5.593,546
5.594,546
5.595,536
5.596,523
5.597,515
5.598,503
5.599,497
5.600,496
5.601,499
5.602,504
5.603,509
5.604,517
5.605,520
5.606,525
5.607,530
5.608,532
5.609,529
5.610,528
5.611,525
5.612,513
5.613,504
5.614,496
5.615,485
5.616,483
5.617,485
5.618,489
5.619,495
5.620,503
5.621,508
5.622,512
5.623,521
5.624,526
5.625,526
5.626,523
5.627,523
5.628,519
5.629,508
5.630,500
5.631,492
5.632,486
5.633,486
5.634,489
5.635,495
5.636,501
5.637,509
5.638,515
5.639,521
5.640,528
5.641,531
5.642,529
5.643,527
5.644,526
5.645,516
5.646,505
5.647,496
5.648,485
5.649,481
5.650,484
5.651,487
5.652,494
5.653,503
5.654,512
5.655,519
5.656,527
5.657,533
5.658,533
5.659,529
5.660,528
5.661,524
5.662,513
5.663,506
5.664,497
5.665,486
5.666,484
5.667,486
5.668,489
5.669,495
5.670,504
5.671,511
5.672,516
5.673,525
5.674,529
5.675,530
5.676,530
5.677,530
5.678,522
5.679,510
5.680,503
5.681,495
5.682,488
5.683,488
5.684,488
5.685,492
5.686,496
5.687,504
5.688,509
5.689,513
5.690,517
5.691,517
5.692,515
5.693,515
5.694,515
5.695,506
5.696,496
5.697,491
5.698,483
5.699,482
5.700,488
5.701,496
5.702,510
5.703,527
5.704,545
5.705,559
5.706,572
5.707,585
5.708,596
5.709,603
5.710,613
5.711,619
5.712,616
5.713,615
5.714,615
5.715,614
5.716,623
5.717,632
5.718,644
5.719,657
5.720,670
5.721,676
5.722,675
5.723,675
5.724,670
5.725,660
5.726,648
5.727,639
5.728,625
5.729,606
5.730,588
5.731,568
5.732,549
5.733,538
5.734,529
5.735,525
5.736,521
5.737,521
5.738,518
5.739,516
5.740,516
5.741,514
5.742,507
5.743,500
5.744,494
5.745,479
5.746,464
5.747,451
5.748,434
5.749,425
5.750,423
5.751,427
5.752,433
5.753,441
5.754,450
5.755,455
5.756,462
5.757,469
5.758,471
5.759,470
5.760,472
5.761,471
5.762,462
5.763,455
5.764,451
5.765,446
5.766,449
5.767,455
5.768,462
5.769,467
5.770,475
5.771,480
5.772,483
5.773,491
5.774,495
5.775,494
5.776,493
5.777,496
5.778,490
5.779,479
5.780,471
5.781,464
5.782,461
5.783,464
5.784,469
5.785,476
5.786,485
5.787,495
5.788,502
5.789,510
5.790,515
5.791,519
5.792,519
5.793,522
5.794,521
5.795,510
5.796,499
5.797,492
5.798,483
5.799,480
5.800,482
5.801,486
5.802,494
5.803,503
5.804,512
5.805,518
5.806,525
5.807,531
5.808,533
5.809,530
5.810,529
5.811,524
5.812,511
5.813,500
5.814,492
5.815,485
5.816,486
5.817,490
5.818,497
5.819,503
5.820,510
5.821,516
5.822,520
5.823,527
5.824,530
5.825,529
5.826,528
5.827,529
5.828,523
5.829,514
5.830,507
5.831,497
5.832,492
5.833,494
5.834,497
5.835,503
5.836,512
5.837,521
5.838,524
5.839,528
5.840,532
5.841,534
5.842,533
5.843,533
5.844,533
5.845,522
5.846,510
5.847,502
5.848,493
5.849,492
5.850,497
5.851,504
5.852,511
5.853,520
5.854,528
5.855,534
5.856,541
5.857,547
5.858,548
5.859,545
5.860,544
5.861,537
5.862,524
5.863,513
5.864,502
5.865,494
5.866,494
5.867,497
5.868,504
5.869,510
5.870,520
5.871,529
5.872,535
5.873,543
5.874,546
5.875,546
5.876,545
5.877,547
5.878,540
5.879,531
5.880,524
5.881,513
5.882,507
5.883,508
5.884,510
5.885,516
5.886,523
5.887,531
5.888,537
5.889,543
5.890,548
5.891,551
5.892,551
5.893,553
5.894,554
5.895,544
5.896,535
5.897,528
5.898,518
5.899,516
5.900,520
5.901,525
5.902,529
5.903,536
5.904,543
5.905,548
5.906,558
5.907,564
5.908,565
5.909,563
5.910,566
5.911,561
5.912,550
5.913,542
5.914,533
5.915,524
5.916,526
5.917,530
5.918,537
5.919,544
5.920,553
5.921,560
5.922,568
5.923,574
5.924,576
5.925,575
5.926,574
5.927,573
5.928,565
5.929,555
5.930,550
5.931,540
5.932,536
5.933,538
5.934,541
5.935,547
5.936,554
5.937,561
5.938,566
5.939,573
5.940,579
5.941,582
5.942,579
5.943,578
5.944,575
5.945,563
5.946,555
5.947,548
5.948,540
5.949,539
5.950,540
5.951,544
5.952,549
5.953,555
5.954,560
5.955,563
5.956,568
5.957,571
5.958,569
5.959,565
5.960,565
5.961,560
5.962,547
5.963,539
5.964,529
5.965,521
5.966,523
5.967,526
5.968,530
5.969,534
5.970,541
5.971,545
5.972,550
5.973,555
5.974,553
5.975,548
5.976,545
5.977,543
5.978,533
5.979,521
5.980,512
5.981,500
5.982,494
5.983,496
5.984,499
5.985,503
5.986,508
5.987,513
5.988,516
5.989,520
5.990,521
5.991,521
5.992,516
5.993,513
5.994,508
5.995,496
5.996,485
5.997,476
5.998,465
5.999,461
6.000,461
6.001,463
6.002,465
6.003,472
6.004,479
6.005,484
6.006,491
6.007,492
6.008,492
6.009,489
6.010,489
6.011,482
6.012,470
6.013,459
6.014,448
6.015,440
6.016,440
6.017,443
6.018,448
6.019,452
6.020,459
6.021,463
6.022,469
6.023,475
6.024,475
6.025,470
6.026,468
6.027,469
6.028,462
6.029,452
6.030,445
6.031,434
6.032,430
6.033,432
6.034,436
6.035,444
6.036,452
6.037,461
6.038,466
6.039,473
6.040,480
6.041,482
6.042,478
6.043,478
6.044,476
6.045,464
6.046,456
6.047,450
6.048,443
6.049,442
6.050,445
6.051,449
6.052,454
6.053,460
6.054,465
6.055,468
6.056,474
6.057,476
6.058,476
6.059,473
6.060,474
6.061,470
6.062,461
6.063,454
6.064,443
6.065,437
6.066,439
6.067,444
6.068,451
6.069,459
6.070,467
6.071,474
6.072,481
6.073,488
6.074,491
6.075,490
6.076,489
6.077,488
6.078,478
6.079,469
6.080,461
6.081,452
6.082,449
6.083,453
6.084,458
6.085,465
6.086,473
6.087,481
6.088,486
6.089,492
6.090,497
6.091,499
6.092,497
6.093,499
6.094,497
6.095,487
6.096,479
6.097,471
6.098,461
6.099,460
6.100,463
6.101,468
6.102,475
6.103,485
6.104,492
6.105,497
6.106,504
6.107,508
6.108,509
6.109,507
6.110,508
6.111,500
6.112,489
6.113,481
6.114,470
6.115,464
6.116,466
6.117,469
6.118,475
6.119,482
6.120,491
6.121,497
6.122,504
6.123,511
6.124,512
6.125,511
6.126,511
6.127,511
6.128,500
6.129,491
6.130,483
6.131,472
6.132,470
6.133,472
6.134,476
6.135,482
6.136,491
6.137,499
6.138,504
6.139,511
6.140,515
6.141,517
6.142,515
6.143,516
6.144,514
6.145,504
6.146,496
6.147,488
6.148,479
6.149,478
6.150,480
6.151,485
6.152,491
6.153,500
6.154,506
6.155,511
6.156,519
6.157,523
6.158,522
6.159,520
6.160,520
6.161,513
6.162,503
6.163,497
6.164,488
6.165,482
6.166,483
6.167,486
6.168,492
6.169,499
6.170,508
6.171,515
6.172,521
6.173,527
6.174,529
6.175,527
6.176,528
6.177,527
6.178,515
6.179,503
6.180,494
6.181,484
6.182,482
6.183,486
6.184,490
6.185,498
6.186,505
6.187,511
6.188,514
6.189,521
6.190,526
6.191,526
6.192,524
6.193,526
6.194,523
6.195,511
6.196,503
6.197,496
6.198,487
6.199,487
6.200,489
6.201,494
6.202,501
6.203,510
6.204,518
6.205,523
6.206,531
6.207,535
6.208,534
6.209,531
6.210,528
6.211,517
6.212,506
6.213,498
6.214,488
6.215,485
6.216,487
6.217,488
6.218,493
6.219,500
6.220,508
6.221,514
6.222,521
6.223,525
6.224,526
6.225,524
6.226,525
6.227,525
6.228,514
6.229,504
6.230,498
6.231,490
6.232,489
6.233,491
6.234,493
6.235,497
6.236,505
6.237,514
6.238,518
6.239,525
6.240,529
6.241,531
6.242,528
6.243,529
6.244,524
6.245,513
6.246,505
6.247,497
6.248,489
6.249,487
6.250,490
6.251,497
6.252,502
6.253,509
6.254,514
6.255,520
6.256,528
6.257,534
6.258,532
6.259,530
6.260,529
6.261,519
6.262,508
6.263,502
6.264,492
6.265,486
6.266,488
6.267,492
6.268,498
6.269,504
6.270,512
6.271,516
6.272,522
6.273,527
6.274,529
6.275,528
6.276,527
6.277,526
6.278,515
6.279,507
6.280,498
6.281,487
6.282,483
6.283,487
6.284,491
6.285,499
6.286,508
6.287,515
6.288,521
6.289,528
6.290,534
6.291,536
6.292,533
6.293,532
6.294,526
6.295,513
6.296,505
6.297,497
6.298,490
6.299,491
6.300,494
6.301,500
6.302,505
6.303,513
6.304,518
6.305,522
6.306,527
6.307,529
6.308,527
6.309,525
6.310,526
6.311,518
6.312,508
6.313,502
6.314,493
6.315,490
6.316,492
6.317,496
6.318,501
6.319,507
6.320,515
6.321,520
6.322,526
6.323,529
6.324,529
6.325,526
6.326,529
6.327,529
6.328,520
6.329,512
6.330,505
6.331,495
6.332,494
6.333,497
6.334,500
6.335,506
6.336,514
6.337,521
6.338,524
6.339,531
6.340,535
6.341,535
6.342,532
6.343,531
6.344,525
6.345,512
6.346,501
6.347,492
6.348,484
6.349,485
6.350,490
6.351,498
6.352,503
6.353,512
6.354,519
6.355,527
6.356,533
6.357,536
6.358,534
6.359,531
6.360,532
6.361,524
6.362,515
6.363,511
6.364,501
6.365,497
6.366,499
6.367,502
6.368,506
6.369,510
6.370,516
6.371,520
6.372,526
6.373,531
6.374,531
6.375,528
6.376,529
6.377,528
6.378,516
6.379,506
6.380,499
6.381,491
6.382,490
6.383,493
6.384,497
6.385,504
6.386,513
6.387,520
6.388,524
6.389,532
6.390,535
6.391,535
6.392,532
6.393,531
6.394,524
6.395,512
6.396,502
6.397,491
6.398,485
6.399,486
6.400,488
6.401,495
6.402,503
6.403,512
6.404,519
6.405,525
6.406,533
6.407,536
6.408,534
6.409,534
6.410,535
6.411,526
6.412,513
6.413,505
6.414,492
6.415,486
6.416,487
6.417,491
6.418,498
6.419,506
6.420,515
6.421,521
6.422,528
6.423,535
6.424,536
6.425,532
6.426,531
6.427,528
6.428,516
6.429,507
6.430,500
6.431,492
6.432,490
6.433,492
6.434,496
6.435,502
6.436,510
6.437,517
6.438,523
6.439,531
6.440,536
6.441,535
6.442,531
6.443,533
6.444,529
6.445,520
6.446,513
6.447,504
6.448,496
6.449,498
6.450,502
6.451,507
6.452,512
6.453,519
6.454,525
6.455,529
6.456,535
6.457,537
6.458,534
6.459,531
6.460,530
6.461,521
6.462,512
6.463,504
6.464,492
6.465,490
6.466,493
6.467,497
6.468,502
6.469,508
6.470,515
6.471,521
6.472,528
6.473,534
6.474,537
6.475,533
6.476,532
6.477,528
6.478,517
6.479,507
6.480,499
6.481,490
6.482,488
6.483,492
6.484,499
6.485,505
6.486,512
6.487,518
6.488,523
6.489,533
6.490,537
6.491,538
6.492,534
6.493,534
6.494,526
6.495,514
6.496,506
6.497,495
6.498,487
6.499,488
6.500,492
6.501,498
6.502,504
6.503,511
6.504,518
6.505,526
6.506,532
6.507,534
6.508,531
6.509,529
6.510,529
6.511,519
6.512,508
6.513,503
6.514,493
6.515,489
6.516,490
6.517,494
6.518,500
6.519,507
6.520,512
6.521,517
6.522,524
6.523,530
6.524,532
6.525,528
6.526,529
6.527,526
6.528,514
6.529,505
6.530,498
6.531,489
6.532,486
6.533,487
6.534,493
6.535,498
6.536,507
6.537,515
6.538,521
6.539,529
6.540,533
6.541,532
6.542,529
6.543,531
6.544,524
6.545,514
6.546,507
6.547,497
6.548,489
6.549,491
6.550,493
6.551,498
6.552,504
6.553,514
6.554,521
6.555,528
6.556,537
6.557,540
6.558,537
6.559,535
6.560,532
6.561,522
6.562,513
6.563,506
6.564,495
6.565,492
6.566,496
6.567,499
6.568,506
6.569,513
6.570,518
6.571,520
6.572,526
6.573,532
6.574,535
6.575,532
6.576,533
6.577,530
6.578,519
6.579,511
6.580,501
6.581,491
6.582,489
6.583,494
6.584,501
6.585,508
6.586,518
6.587,526
6.588,531
6.589,538
6.590,542
6.591,544
6.592,543
6.593,543
6.594,534
6.595,522
6.596,513
6.597,501
6.598,494
6.599,495
6.600,498
6.601,504
6.602,512
6.603,524
6.604,531
6.605,539
6.606,547
6.607,548
6.608,546
6.609,544
6.610,541
6.611,527
6.612,514
6.613,505
6.614,492
6.615,488
6.616,489
6.617,491
6.618,495
6.619,500
6.620,507
6.621,510
6.622,515
6.623,521
6.624,523
6.625,521
6.626,523
6.627,518
6.628,504
6.629,495
6.630,486
6.631,478
6.632,477
6.633,480
6.634,487
6.635,493
6.636,502
6.637,508
6.638,513
6.639,522
6.640,525
6.641,524
6.642,523
6.643,524
6.644,518
6.645,506
6.646,499
6.647,488
6.648,481
6.649,481
6.650,483
6.651,488
6.652,494
6.653,502
6.654,506
6.655,513
6.656,519
6.657,522
6.658,521
6.659,521
6.660,520
6.661,510
6.662,499
6.663,493
6.664,483
6.665,479
6.666,482
6.667,487
6.668,494
6.669,504
6.670,512
6.671,516
6.672,524
6.673,530
6.674,532
6.675,527
6.676,526
6.677,521
6.678,508
6.679,499
6.680,491
6.681,484
6.682,484
6.683,488
6.684,492
6.685,496
6.686,504
6.687,510
6.688,515
6.689,520
6.690,523
6.691,522
6.692,520
6.693,520
6.694,512
6.695,501
6.696,495
6.697,487
6.698,482
6.699,483
6.700,485
6.701,490
6.702,497
6.703,504
6.704,507
6.705,511
6.706,515
6.707,515
6.708,512
6.709,512
6.710,511
6.711,501
6.712,489
6.713,481
6.714,471
6.715,472
6.716,480
6.717,488
6.718,498
6.719,512
6.720,530
6.721,547
6.722,566
6.723,580
6.724,591
6.725,597
6.726,605
6.727,607
6.728,603
6.729,602
6.730,602
6.731,603
6.732,613
6.733,627
6.734,641
6.735,652
6.736,667
6.737,678
6.738,684
6.739,687
6.740,683
6.741,671
6.742,659
6.743,651
6.744,633
6.745,613
6.746,596
6.747,579
6.748,566
6.749,557
6.750,548
6.751,542
6.752,537
6.753,535
6.754,531
6.755,528
6.756,525
6.757,519
6.758,510
6.759,504
6.760,496
6.761,478
6.762,463
6.763,451
6.764,437
6.765,431
6.766,430
6.767,431
6.768,434
6.769,440
6.770,445
6.771,449
6.772,459
6.773,465
6.774,468
6.775,467
6.776,466
6.777,462
6.778,450
6.779,445
6.780,439
6.781,434
6.782,435
6.783,442
6.784,452
6.785,461
6.786,472
6.787,481
6.788,486
6.789,494
6.790,498
6.791,497
6.792,496
6.793,497
6.794,488
6.795,478
6.796,474
6.797,467
6.798,464
6.799,467
6.800,472
6.801,479
6.802,487
6.803,498
6.804,504
6.805,512
6.806,519
6.807,521
6.808,521
6.809,519
6.810,517
6.811,506
6.812,497
6.813,489
6.814,478
6.815,476
6.816,480
6.817,487
6.818,495
6.819,506
6.820,515
6.821,520
6.822,526
6.823,529
6.824,529
6.825,526
6.826,527
6.827,521
6.828,508
6.829,497
6.830,489
6.831,483
6.832,484
6.833,487
6.834,493
6.835,501
6.836,512
6.837,519
6.838,527
6.839,537
6.840,540
6.841,538
6.842,536
6.843,532
6.844,520
6.845,509
6.846,501
6.847,490
6.848,484
6.849,486
6.850,491
6.851,498
6.852,507
6.853,516
6.854,523
6.855,531
6.856,537
6.857,538
6.858,535
6.859,534
6.860,532
6.861,520
6.862,510
6.863,503
6.864,494
6.865,493
6.866,497
6.867,502
6.868,508
6.869,515
6.870,521
6.871,525
6.872,532
6.873,536
6.874,537
6.875,535
6.876,536
6.877,531
6.878,519
6.879,512
6.880,504
6.881,499
6.882,501
6.883,506
6.884,513
6.885,519
6.886,528
6.887,536
6.888,542
6.889,548
6.890,549
6.891,547
6.892,546
6.893,547
6.894,538
6.895,527
6.896,519
6.897,508
6.898,505
6.899,508
6.900,511
6.901,518
6.902,526
6.903,534
6.904,540
6.905,547
6.906,553
6.907,553
6.908,550
6.909,551
6.910,548
6.911,536
6.912,527
6.913,523
6.914,515
6.915,515
6.916,519
6.917,524
6.918,533
6.919,543
6.920,550
6.921,554
6.922,561
6.923,564
6.924,564
6.925,562
6.926,563
6.927,557
6.928,545
6.929,536
6.930,528
6.931,524
6.932,527
6.933,532
6.934,539
6.935,545
6.936,555
6.937,561
6.938,567
6.939,574
6.940,577
6.941,575
6.942,574
6.943,575
6.944,566
6.945,556
6.946,551
6.947,541
6.948,537
6.949,540
6.950,543
6.951,547
6.952,556
6.953,567
6.954,573
6.955,578
6.956,582
6.957,583
6.958,579
6.959,579
6.960,576
6.961,565
6.962,556
6.963,550
6.964,542
6.965,540
6.966,543
6.967,547
6.968,552
6.969,559
6.970,563
6.971,566
6.972,570
6.973,571
6.974,568
6.975,564
6.976,564
6.977,558
6.978,547
6.979,537
6.980,527
6.981,520
6.982,519
6.983,521
6.984,526
6.985,531
6.986,539
6.987,543
6.988,547
6.989,551
6.990,551
6.991,549
6.992,546
6.993,545
6.994,534
6.995,521
6.996,511
6.997,499
6.998,494
6.999,494
7.000,496
7.001,500
7.002,505
7.003,510
7.004,512
7.005,515
7.006,518
7.007,518
7.008,515
7.009,515
7.010,512
7.011,499
7.012,485
7.013,473
7.014,462
7.015,460
7.016,461
7.017,465
7.018,470
7.019,479
7.020,484
7.021,485
7.022,486
7.023,488
7.024,487
7.025,482
7.026,481
7.027,473
7.028,460
7.029,451
7.030,440
7.031,433
7.032,434
7.033,439
7.034,445
7.035,451
7.036,460
7.037,465
7.038,470
7.039,478
7.040,481
7.041,478
7.042,474
7.043,470
7.044,460
7.045,451
7.046,447
7.047,438
7.048,433
7.049,435
7.050,438
7.051,446
7.052,454
7.053,464
7.054,467
7.055,471
7.056,473
7.057,473
7.058,470
7.059,471
7.060,467
7.061,457
7.062,449
7.063,442
7.064,434
7.065,433
7.066,434
7.067,437
7.068,442
7.069,451
7.070,459
7.071,467
7.072,475
7.073,479
7.074,480
7.075,479
7.076,480
7.077,474
7.078,463
7.079,456
7.080,447
7.081,441
7.082,441
7.083,444
7.084,451
7.085,457
7.086,467
7.087,475
7.088,485
7.089,493
7.090,494
7.091,491
7.092,490
7.093,489
7.094,480
7.095,470
7.096,462
7.097,449
7.098,444
7.099,445
7.100,449
7.101,456
7.102,467
7.103,476
7.104,481
7.105,488
7.106,494
7.107,496
7.108,493
7.109,494
7.110,492
7.111,481
7.112,472
7.113,463
7.114,454
7.115,454
7.116,460
7.117,467
7.118,475
7.119,485
7.120,491
7.121,494
7.122,500
7.123,505
7.124,506
7.125,506
7.126,506
7.127,497
7.128,486
7.129,478
7.130,469
7.131,463
7.132,464
7.133,468
7.134,475
7.135,481
7.136,489
7.137,495
7.138,499
7.139,505
7.140,508
7.141,506
7.142,505
7.143,505
7.144,495
7.145,486
7.146,479
7.147,467
7.148,463
7.149,466
7.150,470
7.151,477
7.152,487
7.153,495
7.154,499
7.155,506
7.156,512
7.157,513
7.158,511
7.159,512
7.160,510
7.161,499
7.162,489
7.163,480
7.164,472
7.165,471
7.166,475
7.167,480
7.168,486
7.169,495
7.170,502
7.171,507
7.172,514
7.173,519
7.174,520
7.175,518
7.176,518
7.177,508
7.178,497
7.179,489
7.180,480
7.181,474
7.182,476
7.183,480
7.184,487
7.185,495
7.186,504
7.187,510
7.188,515
7.189,519
7.190,521
7.191,520
7.192,520
7.193,518
7.194,507
7.195,498
7.196,492
7.197,484
7.198,483
7.199,486
7.200,488
7.201,493
7.202,501
7.203,509
7.204,514
7.205,521
7.206,525
7.207,525
7.208,522
7.209,523
7.210,519
7.211,507
7.212,496
7.213,487
7.214,477
7.215,476
7.216,479
7.217,483
7.218,489
7.219,498
7.220,503
7.221,507
7.222,515
7.223,519
7.224,519
7.225,518
7.226,519
7.227,514
7.228,503
7.229,494
7.230,484
7.231,479
7.232,480
7.233,485
7.234,490
7.235,498
7.236,507
7.237,513
7.238,520
7.239,525
7.240,526
7.241,524
7.242,524
7.243,523
7.244,511
7.245,502
7.246,496
7.247,485
7.248,484
7.249,487
7.250,491
7.251,498
7.252,506
7.253,512
7.254,513
7.255,518
7.256,522
7.257,521
7.258,519
7.259,520
7.260,516
7.261,507
7.262,498
7.263,492
7.264,485
7.265,487
7.266,492
7.267,500
7.268,507
7.269,513
7.270,517
7.271,521
7.272,527
7.273,528
7.274,527
7.275,524
7.276,523
7.277,514
7.278,503
7.279,496
7.280,485
7.281,480
7.282,481
7.283,485
7.284,490
7.285,496
7.286,504
7.287,511
7.288,518
7.289,526
7.290,529
7.291,528
7.292,528
7.293,526
7.294,515
7.295,506
7.296,499
7.297,488
7.298,484
7.299,485
7.300,488
7.301,495
7.302,504
7.303,514
7.304,518
7.305,526
7.306,530
7.307,531
7.308,527
7.309,526
7.310,521
7.311,509
7.312,499
7.313,490
7.314,483
7.315,484
7.316,488
7.317,494
7.318,499
7.319,507
7.320,512
7.321,518
7.322,527
7.323,533
7.324,532
7.325,529
7.326,526
7.327,516
7.328,505
7.329,499
7.330,489
7.331,484
7.332,484
7.333,489
7.334,496
7.335,504
7.336,511
7.337,515
7.338,520
7.339,527
7.340,529
7.341,527
7.342,525
7.343,523
7.344,511
7.345,500
7.346,493
7.347,484
7.348,484
7.349,487
7.350,491
7.351,497
7.352,505
7.353,510
7.354,514
7.355,521
7.356,528
7.357,531
7.358,529
7.359,529
7.360,524
7.361,511
7.362,502
7.363,493
7.364,484
7.365,484
7.366,489
7.367,497
7.368,504
7.369,512
7.370,518
7.371,521
7.372,526
7.373,527
7.374,523
7.375,521
7.376,522
7.377,515
7.378,507
7.379,502
7.380,495
7.381,491
7.382,493
7.383,495
7.384,499
7.385,505
7.386,515
7.387,525
7.388,533
7.389,536
7.390,532
7.391,525
7.392,521
7.393,519
7.394,509
7.395,500
7.396,495
7.397,485
7.398,483
7.399,487
7.400,492
7.401,498
7.402,506
7.403,513
7.404,520
7.405,530
7.406,535
7.407,533
7.408,529
7.409,529
7.410,524
7.411,512
7.412,503
7.413,494
7.414,488
7.415,488
7.416,492
7.417,499
7.418,505
7.419,514
7.420,519
7.421,523
7.422,527
7.423,528
7.424,528
7.425,527
7.426,526
7.427,515
7.428,504
7.429,496
7.430,487
7.431,483
7.432,488
7.433,493
7.434,498
7.435,504
7.436,512
7.437,518
7.438,526
7.439,532
7.440,534
7.441,531
7.442,530
7.443,526
7.444,515
7.445,507
7.446,500
7.447,491
7.448,489
7.449,492
7.450,496
7.451,501
7.452,509
7.453,515
7.454,519
7.455,526
7.456,532
7.457,533
7.458,529
7.459,530
7.460,524
7.461,513
7.462,505
7.463,496
7.464,489
7.465,489
7.466,490
7.467,494
7.468,501
7.469,511
7.470,518
7.471,524
7.472,531
7.473,534
7.474,531
7.475,527
7.476,526
7.477,516
7.478,504
7.479,497
7.480,488
7.481,484
7.482,487
7.483,493
7.484,502
7.485,511
7.486,520
7.487,525
7.488,530
7.489,532
7.490,534
7.491,532
7.492,532
7.493,530
7.494,520
7.495,511
7.496,502
7.497,488
7.498,485
7.499,486
7.500,490
7.501,496
7.502,505
7.503,513
7.504,517
7.505,526
7.506,533
7.507,535
7.508,534
7.509,536
7.510,531
7.511,519
7.512,510
7.513,500
7.514,490
7.515,487
7.516,489
7.517,494
7.518,499
7.519,508
7.520,515
7.521,521
7.522,527
7.523,530
7.524,529
7.525,527
7.526,527
7.527,520
7.528,511
7.529,504
7.530,493
7.531,488
7.532,489
7.533,494
7.534,502
7.535,511
7.536,519
7.537,523
7.538,527
7.539,530
7.540,531
7.541,529
7.542,528
7.543,523
7.544,510
7.545,499
7.546,493
7.547,486
7.548,485
7.549,490
7.550,496
7.551,504
7.552,514
7.553,521
7.554,525
7.555,533
7.556,537
7.557,537
7.558,535
7.559,536
7.560,529
7.561,515
7.562,504
7.563,495
7.564,489
7.565,493
7.566,498
7.567,502
7.568,508
7.569,516
7.570,522
7.571,528
7.572,538
7.573,543
7.574,543
7.575,543
7.576,543
7.577,533
7.578,522
7.579,515
7.580,504
7.581,499
7.582,502
7.583,506
7.584,512
7.585,521
7.586,530
7.587,534
7.588,540
7.589,545
7.590,547
7.591,543
7.592,542
7.593,540
7.594,527
7.595,518
7.596,514
7.597,507
7.598,506
7.599,509
7.600,511
7.601,515
7.602,523
7.603,530
7.604,535
7.605,541
7.606,543
7.607,540
7.608,534
7.609,531
7.610,521
7.611,508
7.612,499
7.613,488
7.614,480
7.615,479
7.616,482
7.617,490
7.618,496
7.619,506
7.620,515
7.621,521
7.622,527
7.623,529
7.624,527
7.625,527
7.626,526
7.627,515
7.628,505
7.629,499
7.630,490
7.631,486
7.632,487
7.633,489
7.634,495
7.635,502
7.636,511
7.637,515
7.638,522
7.639,527
7.640,530
7.641,528
7.642,529
7.643,525
7.644,513
7.645,504
7.646,496
7.647,486
7.648,485
7.649,488
7.650,492
7.651,498
7.652,506
7.653,512
7.654,516
7.655,523
7.656,526
7.657,525
7.658,520
7.659,521
7.660,515
7.661,503
7.662,494
7.663,485
7.664,479
7.665,480
7.666,482
7.667,488
7.668,496
7.669,507
7.670,513
7.671,519
7.672,526
7.673,530
7.674,529
7.675,527
7.676,524
7.677,514
7.678,503
7.679,495
7.680,483
7.681,479
7.682,480
7.683,484
7.684,490
7.685,496
7.686,504
7.687,510
7.688,519
7.689,525
7.690,527
7.691,524
7.692,523
7.693,519
7.694,505
7.695,494
7.696,487
7.697,479
7.698,479
7.699,483
7.700,486
7.701,489
7.702,497
7.703,502
7.704,506
7.705,513
7.706,516
7.707,517
7.708,517
7.709,519
7.710,516
7.711,508
7.712,503
7.713,500
7.714,502
7.715,511
7.716,523
7.717,537
7.718,551
7.719,569
7.720,583
7.721,598
7.722,612
7.723,623
7.724,629
7.725,635
7.726,641
7.727,638
7.728,636
7.729,638
7.730,636
7.731,637
7.732,637
7.733,635
7.734,633
7.735,635
7.736,635
7.737,631
7.738,628
7.739,627
7.740,622
7.741,611
7.742,601
7.743,589
7.744,567
7.745,546
7.746,528
7.747,508
7.748,496
7.749,488
7.750,486
7.751,486
7.752,489
7.753,489
7.754,488
7.755,490
7.756,490
7.757,486
7.758,478
7.759,474
7.760,465
7.761,452
7.762,441
7.763,429
7.764,420
7.765,420
7.766,423
7.767,431
7.768,439
7.769,451
7.770,459
7.771,469
7.772,478
7.773,482
7.774,480
7.775,479
7.776,479
7.777,468
7.778,458
7.779,454
7.780,447
7.781,445
7.782,448
7.783,452
7.784,462
7.785,470
7.786,479
7.787,483
7.788,489
7.789,493
7.790,495
7.791,494
7.792,496
7.793,494
7.794,483
7.795,475
7.796,467
7.797,460
7.798,461
7.799,465
7.800,472
7.801,480
7.802,491
7.803,500
7.804,506
7.805,513
7.806,518
7.807,519
7.808,518
7.809,519
7.810,516
7.811,506
7.812,496
7.813,486
7.814,479
7.815,480
7.816,485
7.817,491
7.818,496
7.819,505
7.820,510
7.821,516
7.822,523
7.823,525
7.824,523
7.825,523
7.826,523
7.827,514
7.828,504
7.829,496
7.830,486
7.831,483
7.832,486
7.833,491
7.834,497
7.835,506
7.836,512
7.837,515
7.838,521
7.839,528
7.840,530
7.841,528
7.842,528
7.843,524
7.844,514
7.845,507
7.846,499
7.847,492
7.848,492
7.849,496
7.850,501
7.851,505
7.852,513
7.853,519
7.854,523
7.855,531
7.856,535
7.857,534
7.858,531
7.859,531
7.860,526
7.861,515
7.862,507
7.863,497
7.864,492
7.865,495
7.866,498
7.867,504
7.868,512
7.869,521
7.870,526
7.871,532
7.872,540
7.873,541
7.874,539
7.875,536
7.876,535
7.877,527
7.878,519
7.879,513
7.880,504
7.881,502
7.882,505
7.883,507
7.884,513
7.885,521
7.886,528
7.887,534
7.888,541
7.889,546
7.890,550
7.891,547
7.892,547
7.893,544
7.894,532
7.895,523
7.896,515
7.897,507
7.898,506
7.899,510
7.900,516
7.901,523
7.902,533
7.903,540
7.904,546
7.905,554
7.906,559
7.907,559
7.908,558
7.909,559
7.910,552
7.911,542
7.912,534
7.913,524
7.914,519
7.915,521
7.916,524
7.917,531
7.918,538
7.919,548
7.920,558
7.921,564
7.922,571
7.923,574
7.924,572
7.925,572
7.926,572
7.927,561
7.928,550
7.929,542
7.930,533
7.931,529
7.932,531
7.933,535
7.934,542
7.935,551
7.936,560
7.937,564
7.938,571
7.939,575
7.940,577
7.941,575
7.942,577
7.943,575
7.944,565
7.945,557
7.946,550
7.947,542
7.948,542
7.949,543
7.950,546
7.951,551
7.952,559
7.953,567
7.954,572
7.955,578
7.956,580
7.957,579
7.958,576
7.959,576
7.960,569
7.961,556
7.962,547
7.963,538
7.964,532
7.965,532
7.966,535
7.967,541
7.968,545
7.969,552
7.970,558
7.971,566
7.972,571
7.973,572
7.974,568
7.975,563
7.976,558
7.977,547
7.978,535
7.979,527
7.980,518
7.981,513
7.982,514
7.983,516
7.984,520
7.985,526
7.986,531
7.987,534
7.988,539
7.989,542
7.990,541
7.991,536
7.992,535
7.993,531
7.994,516
7.995,504
7.996,494
7.997,484
7.998,483
7.999,483
8.000,485
8.001,489
8.002,496
8.003,502
8.004,504
8.005,507
8.006,508
8.007,504
8.008,501
8.009,499
8.010,492
8.011,480
8.012,471
8.013,460
8.014,452
8.015,451
8.016,452
8.017,457
8.018,463
8.019,469
8.020,472
8.021,476
8.022,481
8.023,483
8.024,481
8.025,479
8.026,477
8.027,465
8.028,452
8.029,443
8.030,432
8.031,427
8.032,429
8.033,432
8.034,438
8.035,449
8.036,460
8.037,466
8.038,475
8.039,480
8.040,482
8.041,479
8.042,478
8.043,471
8.044,457
8.045,447
8.046,439
8.047,432
8.048,433
8.049,435
8.050,440
8.051,446
8.052,454
8.053,462
8.054,467
8.055,473
8.056,477
8.057,476
8.058,474
8.059,475
8.060,467
8.061,455
8.062,448
8.063,438
8.064,431
8.065,432
8.066,436
8.067,441
8.068,449
8.069,459
8.070,466
8.071,474
8.072,481
8.073,485
8.074,483
8.075,485
8.076,486
8.077,476
8.078,463
8.079,455
8.080,443
8.081,440
8.082,444
8.083,447
8.084,454
8.085,462
8.086,469
8.087,474
8.088,482
8.089,487
8.090,490
8.091,487
8.092,487
8.093,484
8.094,473
8.095,464
8.096,457
8.097,448
8.098,448
8.099,452
8.100,459
8.101,464
8.102,474
8.103,484
8.104,491
8.105,500
8.106,504
8.107,505
8.108,502
8.109,501
8.110,494
8.111,484
8.112,475
8.113,466
8.114,460
8.115,460
8.116,463
8.117,469
8.118,476
8.119,485
8.120,492
8.121,498
8.122,504
8.123,507
8.124,506
8.125,505
8.126,504
8.127,492
8.128,482
8.129,475
8.130,465
8.131,463
8.132,466
8.133,471
8.134,477
8.135,486
8.136,494
8.137,501
8.138,509
8.139,514
8.140,516
8.141,514
8.142,514
8.143,510
8.144,498
8.145,489
8.146,481
8.147,472
8.148,472
8.149,475
8.150,480
8.151,485
8.152,494
8.153,500
8.154,504
8.155,511
8.156,514
8.157,515
8.158,513
8.159,514
8.160,508
8.161,498
8.162,491
8.163,482
8.164,478
8.165,481
8.166,485
8.167,490
8.168,495
8.169,502
8.170,507
8.171,513
8.172,519
8.173,521
8.174,518
8.175,517
8.176,517
8.177,507
8.178,497
8.179,491
8.180,481
8.181,480
8.182,484
8.183,488
8.184,495
8.185,503
8.186,510
8.187,515
8.188,524
8.189,529
8.190,531
8.191,529
8.192,530
8.193,527
8.194,515
8.195,507
8.196,499
8.197,487
8.198,485
8.199,487
8.200,491
8.201,496
8.202,504
8.203,511
8.204,516
8.205,524
8.206,528
8.207,529
8.208,529
8.209,529
8.210,521
8.211,511
8.212,502
8.213,492
8.214,485
8.215,485
8.216,488
8.217,495
8.218,502
8.219,511
8.220,516
8.221,520
8.222,526
8.223,528
8.224,527
8.225,526
8.226,524
8.227,512
8.228,502
8.229,495
8.230,485
8.231,483
8.232,486
8.233,490
8.234,496
8.235,504
8.236,513
8.237,518
8.238,526
8.239,530
8.240,528
8.241,525
8.242,524
8.243,521
8.244,509
8.245,500
8.246,492
8.247,485
8.248,485
8.249,487
8.250,492
8.251,496
8.252,503
8.253,508
8.254,512
8.255,519
8.256,523
8.257,523
8.258,522
8.259,524
8.260,519
8.261,510
8.262,504
8.263,493
8.264,486
8.265,485
8.266,487
8.267,494
8.268,500
8.269,508
8.270,513
8.271,519
8.272,524
8.273,527
8.274,526
8.275,528
8.276,527
8.277,518
8.278,509
8.279,503
8.280,493
8.281,489
8.282,491
8.283,491
8.284,496
8.285,504
8.286,512
8.287,517
8.288,524
8.289,529
8.290,531
8.291,529
8.292,530
8.293,526
8.294,515
8.295,508
8.296,500
8.297,489
8.298,487
8.299,489
8.300,493
8.301,500
8.302,510
8.303,516
8.304,520
8.305,527
8.306,531
8.307,531
8.308,530
8.309,530
8.310,520
8.311,509
8.312,502
8.313,492
8.314,486
8.315,488
8.316,491
8.317,496
8.318,502
8.319,509
8.320,512
8.321,519
8.322,526
8.323,529
8.324,528
8.325,528
8.326,527
8.327,516
8.328,506
8.329,499
8.330,489
8.331,487
8.332,489
8.333,492
8.334,498
8.335,507
8.336,514
8.337,519
8.338,528
8.339,534
8.340,536
8.341,534
8.342,535
8.343,531
8.344,520
8.345,511
8.346,501
8.347,491
8.348,489
8.349,490
8.350,495
8.351,502
8.352,510
8.353,516
8.354,520
8.355,526
8.356,529
8.357,529
8.358,527
8.359,528
8.360,520
8.361,511
8.362,503
8.363,493
8.364,488
8.365,491
8.366,495
8.367,501
8.368,507
8.369,515
8.370,521
8.371,527
8.372,532
8.373,535
8.374,532
8.375,533
8.376,534
8.377,523
8.378,514
8.379,508
8.380,499
8.381,498
8.382,498
8.383,499
8.384,503
8.385,510
8.386,516
8.387,519
8.388,525
8.389,530
8.390,532
8.391,530
8.392,531
8.393,528
8.394,517
8.395,509
8.396,502
8.397,494
8.398,493
8.399,495
8.400,499
8.401,504
8.402,513
8.403,521
8.404,526
8.405,534
8.406,537
8.407,537
8.408,536
8.409,535
8.410,527
8.411,516
8.412,509
8.413,500
8.414,494
8.415,497
8.416,500
8.417,507
8.418,513
8.419,519
8.420,523
8.421,528
8.422,532
8.423,536
8.424,533
8.425,532
8.426,531
8.427,519
8.428,512
8.429,505
8.430,494
8.431,492
8.432,495
8.433,499
8.434,504
8.435,512
8.436,519
8.437,521
8.438,527
8.439,533
8.440,535
8.441,533
8.442,532
8.443,526
8.444,514
8.445,506
8.446,498
8.447,491
8.448,491
8.449,495
8.450,502
8.451,508
8.452,516
8.453,521
8.454,524
8.455,530
8.456,534
8.457,533
8.458,532
8.459,532
8.460,524
8.461,514
8.462,507
8.463,497
8.464,492
8.465,495
8.466,497
8.467,502
8.468,508
8.469,516
8.470,519
8.471,526
8.472,531
8.473,534
8.474,533
8.475,532
8.476,531
8.477,521
8.478,511
8.479,502
8.480,492
8.481,489
8.482,491
8.483,496
8.484,501
8.485,509
8.486,516
8.487,520
8.488,527
8.489,532
8.490,534
8.491,531
8.492,532
8.493,529
8.494,518
8.495,510
8.496,503
8.497,495
8.498,494
8.499,496
8.500,501
8.501,505
8.502,514
8.503,521
8.504,526
8.505,532
8.506,535
8.507,534
8.508,533
8.509,534
8.510,526
8.511,514
8.512,507
8.513,498
8.514,492
8.515,493
8.516,496
8.517,501
8.518,507
8.519,515
8.520,520
8.521,527
8.522,531
8.523,534
8.524,532
8.525,533
8.526,531
8.527,520
8.528,511
8.529,504
8.530,495
8.531,494
8.532,498
8.533,502
8.534,508
8.535,515
8.536,523
8.537,528
8.538,535
8.539,539
8.540,540
8.541,536
8.542,534
8.543,527
8.544,516
8.545,507
8.546,499
8.547,491
8.548,490
8.549,494
8.550,499
8.551,506
8.552,513
8.553,519
8.554,525
8.555,534
8.556,537
8.557,536
8.558,534
8.559,534
8.560,526
8.561,515
8.562,506
8.563,496
8.564,492
8.565,494
8.566,494
8.567,498
8.568,505
8.569,515
8.570,521
8.571,529
8.572,536
8.573,538
8.574,536
8.575,536
8.576,535
8.577,524
8.578,515
8.579,508
8.580,499
8.581,497
8.582,500
8.583,505
8.584,511
8.585,520
8.586,529
8.587,534
8.588,540
8.589,543
8.590,543
8.591,541
8.592,542
8.593,537
8.594,526
8.595,517
8.596,508
8.597,500
8.598,500
8.599,504
8.600,510
8.601,516
8.602,525
8.603,531
8.604,533
8.605,539
8.606,541
8.607,538
8.608,535
8.609,534
8.610,524
8.611,513
8.612,505
8.613,494
8.614,487
8.615,488
8.616,491
8.617,496
8.618,501
8.619,508
8.620,512
8.621,518
8.622,525
8.623,527
8.624,524
8.625,524
8.626,522
8.627,511
8.628,502
8.629,496
8.630,487
8.631,484
8.632,486
8.633,490
8.634,497
8.635,507
8.636,513
8.637,517
8.638,525
8.639,529
8.640,529
8.641,526
8.642,527
8.643,521
8.644,508
8.645,500
8.646,492
8.647,485
8.648,484
8.649,486
8.650,491
8.651,495
8.652,504
8.653,512
8.654,518
8.655,526
8.656,529
8.657,528
8.658,527
8.659,527
8.660,518
8.661,506
8.662,498
8.663,488
8.664,483
8.665,483
8.666,484
8.667,490
8.668,497
8.669,505
8.670,510
8.671,517
8.672,524
8.673,527
8.674,526
8.675,528
8.676,529
8.677,519
8.678,511
8.679,501
8.680,488
8.681,484
8.682,484
8.683,486
8.684,492
8.685,501
8.686,510
8.687,514
8.688,521
8.689,525
8.690,527
8.691,526
8.692,527
8.693,521
8.694,510
8.695,500
8.696,489
8.697,480
8.698,479
8.699,481
8.700,485
8.701,489
8.702,496
8.703,500
8.704,505
8.705,514
8.706,520
8.707,521
8.708,523
8.709,527
8.710,523
8.711,515
8.712,509
8.713,502
8.714,502
8.715,509
8.716,521
8.717,538
8.718,553
8.719,568
8.720,582
8.721,596
8.722,611
8.723,623
8.724,631
8.725,641
8.726,649
8.727,647
8.728,647
8.729,648
8.730,643
8.731,646
8.732,653
8.733,659
8.734,661
8.735,661
8.736,660
8.737,655
8.738,652
8.739,645
8.740,635
8.741,624
8.742,616
8.743,603
8.744,582
8.745,563
8.746,543
8.747,527
8.748,516
8.749,510
8.750,506
8.751,503
8.752,502
8.753,499
8.754,496
8.755,497
8.756,496
8.757,491
8.758,485
8.759,481
8.760,467
8.761,451
8.762,441
8.763,428
8.764,421
8.765,419
8.766,418
8.767,424
8.768,433
8.769,443
8.770,450
8.771,458
8.772,465
8.773,471
8.774,470
8.775,473
8.776,475
8.777,467
8.778,459
8.779,454
8.780,448
8.781,447
8.782,451
8.783,456
8.784,463
8.785,472
8.786,478
8.787,481
8.788,490
8.789,497
8.790,500
8.791,499
8.792,503
8.793,502
8.794,492
8.795,486
8.796,479
8.797,472
8.798,473
8.799,475
8.800,480
8.801,486
8.802,496
8.803,505
8.804,513
8.805,521
8.806,525
8.807,525
8.808,526
8.809,528
8.810,521
8.811,511
8.812,504
8.813,493
8.814,487
8.815,488
8.816,491
8.817,497
8.818,504
8.819,511
8.820,516
8.821,522
8.822,526
8.823,529
8.824,527
8.825,529
8.826,527
8.827,516
8.828,509
8.829,503
8.830,492
8.831,490
8.832,492
8.833,496
8.834,500
8.835,508
8.836,515
8.837,521
8.838,531
8.839,537
8.840,538
8.841,536
8.842,536
8.843,531
8.844,521
8.845,513
8.846,503
8.847,494
8.848,494
8.849,495
8.850,499
8.851,504
8.852,513
8.853,520
8.854,526
8.855,535
8.856,540
8.857,541
8.858,540
8.859,543
8.860,535
8.861,525
8.862,517
8.863,505
8.864,500
8.865,501
8.866,504
8.867,509
8.868,516
8.869,526
8.870,532
8.871,538
8.872,544
8.873,548
8.874,546
8.875,546
8.876,541
8.877,527
8.878,517
8.879,511
8.880,503
8.881,502
8.882,504
8.883,508
8.884,513
8.885,523
8.886,531
8.887,536
8.888,544
8.889,550
8.890,552
8.891,550
8.892,551
8.893,547
8.894,537
8.895,530
8.896,521
8.897,513
8.898,512
8.899,515
8.900,521
8.901,527
8.902,537
8.903,543
8.904,548
8.905,555
8.906,557
8.907,556
8.908,553
8.909,554
8.910,546
8.911,537
8.912,531
8.913,523
8.914,520
8.915,524
8.916,527
8.917,534
8.918,541
8.919,548
8.920,554
8.921,561
8.922,567
8.923,570
8.924,568
8.925,569
8.926,570
8.927,560
8.928,551
8.929,545
8.930,536
8.931,537
8.932,540
8.933,544
8.934,551
8.935,558
8.936,563
8.937,566
8.938,572
8.939,575
8.940,579
8.941,579
8.942,581
8.943,577
8.944,567
8.945,559
8.946,549
8.947,541
8.948,543
8.949,546
8.950,551
8.951,556
8.952,562
8.953,567
8.954,574
8.955,583
8.956,587
8.957,584
8.958,583
8.959,583
8.960,575
8.961,566
8.962,558
8.963,546
8.964,541
8.965,542
8.966,543
8.967,548
8.968,554
8.969,559
8.970,563
8.971,569
8.972,573
8.973,574
8.974,569
8.975,569
8.976,568
8.977,556
8.978,545
8.979,537
8.980,527
8.981,524
8.982,524
8.983,525
8.984,527
8.985,532
8.986,537
8.987,541
8.988,546
8.989,549
8.990,550
8.991,548
8.992,546
8.993,538
8.994,524
8.995,513
8.996,502
8.997,492
8.998,489
8.999,489
9.000,491
9.001,495
9.002,503
9.003,506
9.004,507
9.005,512
9.006,513
9.007,511
9.008,511
9.009,511
9.010,502
9.011,489
9.012,479
9.013,467
9.014,462
9.015,462
9.016,462
9.017,465
9.018,470
9.019,476
9.020,479
9.021,483
9.022,487
9.023,488
9.024,486
9.025,486
9.026,486
9.027,474
9.028,463
9.029,453
9.030,441
9.031,438
9.032,438
9.033,440
9.034,446
9.035,453
9.036,459
9.037,463
9.038,471
9.039,475
9.040,473
9.041,468
9.042,470
9.043,466
9.044,456
9.045,448
9.046,438
9.047,430
9.048,431
9.049,432
9.050,436
9.051,442
9.052,451
9.053,459
9.054,467
9.055,478
9.056,483
9.057,482
9.058,481
9.059,482
9.060,472
9.061,461
9.062,453
9.063,443
9.064,439
9.065,440
9.066,442
9.067,447
9.068,453
9.069,460
9.070,466
9.071,474
9.072,479
9.073,481
9.074,479
9.075,480
9.076,480
9.077,471
9.078,463
9.079,455
9.080,447
9.081,444
9.082,445
9.083,450
9.084,455
9.085,464
9.086,471
9.087,475
9.088,483
9.089,489
9.090,491
9.091,488
9.092,490
9.093,487
9.094,477
9.095,470
9.096,461
9.097,453
9.098,453
9.099,455
9.100,460
9.101,465
9.102,473
9.103,479
9.104,485
9.105,493
9.106,496
9.107,496
9.108,497
9.109,498
9.110,489
9.111,478
9.112,471
9.113,461
9.114,459
9.115,462
9.116,466
9.117,472
9.118,480
9.119,490
9.120,495
9.121,501
9.122,505
9.123,507
9.124,504
9.125,506
9.126,507
9.127,498
9.128,488
9.129,478
9.130,466
9.131,463
9.132,465
9.133,469
9.134,475
9.135,483
9.136,490
9.137,495
9.138,502
9.139,508
9.140,509
9.141,507
9.142,509
9.143,506
9.144,495
9.145,487
9.146,477
9.147,470
9.148,471
9.149,473
9.150,479
9.151,485
9.152,493
9.153,498
9.154,503
9.155,511
9.156,516
9.157,515
9.158,514
9.159,514
9.160,505
9.161,495
9.162,487
9.163,475
9.164,471
9.165,474
9.166,479
9.167,486
9.168,496
9.169,504
9.170,508
9.171,514
9.172,519
9.173,521
9.174,518
9.175,519
9.176,518
9.177,505
9.178,495
9.179,487
9.180,479
9.181,478
9.182,481
9.183,484
9.184,488
9.185,495
9.186,503
9.187,508
9.188,515
9.189,520
9.190,520
9.191,518
9.192,519
9.193,514
9.194,502
9.195,493
9.196,484
9.197,477
9.198,478
9.199,483
9.200,489
9.201,494
9.202,503
9.203,509
9.204,514
9.205,521
9.206,524
9.207,523
9.208,522
9.209,523
9.210,515
9.211,504
9.212,495
9.213,482
9.214,478
9.215,482
9.216,486
9.217,491
9.218,497
9.219,504
9.220,510
9.221,516
9.222,522
9.223,525
9.224,522
9.225,523
9.226,521
9.227,510
9.228,501
9.229,494
9.230,485
9.231,482
9.232,484
9.233,487
9.234,492
9.235,500
9.236,507
9.237,511
9.238,519
9.239,526
9.240,527
9.241,526
9.242,529
9.243,522
9.244,510
9.245,501
9.246,491
9.247,483
9.248,483
9.249,487
9.250,492
9.251,496
9.252,504
9.253,511
9.254,517
9.255,524
9.256,527
9.257,527
9.258,526
9.259,527
9.260,518
9.261,508
9.262,501
9.263,491
9.264,486
9.265,487
9.266,488
9.267,494
9.268,501
9.269,509
9.270,514
9.271,520
9.272,526
9.273,529
9.274,529
9.275,531
9.276,528
9.277,516
9.278,505
9.279,497
9.280,486
9.281,483
9.282,486
9.283,488
9.284,493
9.285,501
9.286,506
9.287,509
9.288,515
9.289,519
9.290,520
9.291,521
9.292,524
9.293,520
9.294,511
9.295,504
9.296,496
9.297,491
9.298,491
9.299,493
9.300,499
9.301,506
9.302,515
9.303,521
9.304,527
9.305,533
9.306,534
9.307,532
9.308,532
9.309,533
9.310,522
9.311,510
9.312,502
9.313,491
9.314,487
9.315,490
9.316,493
9.317,497
9.318,504
9.319,512
9.320,515
9.321,522
9.322,528
9.323,531
9.324,529
9.325,530
9.326,527
9.327,515
9.328,507
9.329,500
9.330,491
9.331,489
9.332,492
9.333,495
9.334,498
9.335,505
9.336,512
9.337,518
9.338,525
9.339,529
9.340,529
9.341,530
9.342,535
9.343,530
9.344,518
9.345,507
9.346,497
9.347,490
9.348,489
9.349,489
9.350,493
9.351,501
9.352,512
9.353,519
9.354,524
9.355,530
9.356,533
9.357,531
9.358,531
9.359,531
9.360,522
9.361,511
9.362,503
9.363,492
9.364,487
9.365,488
9.366,490
9.367,496
9.368,504
9.369,512
9.370,518
9.371,526
9.372,531
9.373,535
9.374,531
9.375,530
9.376,527
9.377,518
9.378,509
9.379,500
9.380,490
9.381,489
9.382,493
9.383,496
9.384,499
9.385,508
9.386,514
9.387,518
9.388,526
9.389,530
9.390,531
9.391,531
9.392,532
9.393,525
9.394,514
9.395,505
9.396,497
9.397,491
9.398,492
9.399,496
9.400,501
9.401,508
9.402,518
9.403,523
9.404,527
9.405,532
9.406,534
9.407,531
9.408,530
9.409,528
9.410,519
9.411,509
9.412,502
9.413,491
9.414,487
9.415,489
9.416,492
9.417,497
9.418,506
9.419,513
9.420,518
9.421,526
9.422,534
9.423,537
9.424,535
9.425,537
9.426,536
9.427,524
9.428,514
9.429,505
9.430,496
9.431,495
9.432,495
9.433,497
9.434,501
9.435,508
9.436,514
9.437,519
9.438,526
9.439,529
9.440,530
9.441,527
9.442,527
9.443,521
9.444,511
9.445,505
9.446,496
9.447,491
9.448,492
9.449,494
9.450,499
9.451,505
9.452,514
9.453,519
9.454,524
9.455,531
9.456,536
9.457,535
9.458,536
9.459,536
9.460,526
9.461,513
9.462,504
9.463,493
9.464,488
9.465,491
9.466,494
9.467,500
9.468,506
9.469,513
9.470,518
9.471,525
9.472,530
9.473,532
9.474,529
9.475,529
9.476,527
9.477,518
9.478,509
9.479,499
9.480,488
9.481,488
9.482,492
9.483,498
9.484,505
9.485,514
9.486,521
9.487,525
9.488,532
9.489,537
9.490,537
9.491,534
9.492,535
9.493,527
9.494,515
9.495,507
9.496,499
9.497,494
9.498,494
9.499,497
9.500,503
9.501,510
9.502,516
9.503,520
9.504,524
9.505,531
9.506,534
9.507,533
9.508,532
9.509,532
9.510,521
9.511,509
9.512,501
9.513,491
9.514,490
9.515,493
9.516,497
9.517,503
9.518,511
9.519,518
9.520,523
9.521,530
9.522,536
9.523,537
9.524,534
9.525,536
9.526,535
9.527,525
9.528,517
9.529,509
9.530,497
9.531,493
9.532,493
9.533,496
9.534,502
9.535,511
9.536,517
9.537,522
9.538,529
9.539,533
9.540,534
9.541,534
9.542,537
9.543,531
9.544,520
9.545,511
9.546,501
9.547,494
9.548,494
9.549,497
9.550,504
9.551,510
9.552,518
9.553,523
9.554,529
9.555,535
9.556,538
9.557,536
9.558,537
9.559,539
9.560,530
9.561,520
9.562,514
9.563,503
9.564,497
9.565,496
9.566,498
9.567,504
9.568,510
9.569,519
9.570,524
9.571,531
9.572,535
9.573,538
9.574,536
9.575,537
9.576,534
9.577,524
9.578,516
9.579,509
9.580,500
9.581,500
9.582,502
9.583,505
9.584,510
9.585,518
9.586,524
9.587,531
9.588,540
9.589,545
9.590,546
9.591,546
9.592,548
9.593,543
9.594,531
9.595,520
9.596,509
9.597,500
9.598,499
9.599,500
9.600,505
9.601,511
9.602,517
9.603,519
9.604,523
9.605,528
9.606,531
9.607,528
9.608,527
9.609,525
9.610,515
9.611,505
9.612,498
9.613,488
9.614,485
9.615,487
9.616,489
9.617,493
9.618,500
9.619,508
9.620,515
9.621,523
9.622,527
9.623,527
9.624,525
9.625,527
9.626,524
9.627,512
9.628,503
9.629,494
9.630,484
9.631,482
9.632,484
9.633,487
9.634,491
9.635,499
9.636,507
9.637,513
9.638,521
9.639,525
9.640,525
9.641,524
9.642,523
9.643,515
9.644,503
9.645,494
9.646,483
9.647,479
9.648,482
9.649,486
9.650,493
9.651,500
9.652,509
9.653,514
9.654,519
9.655,527
9.656,529
9.657,526
9.658,524
9.659,524
9.660,513
9.661,502
9.662,495
9.663,484
9.664,480
9.665,482
9.666,487
9.667,492
9.668,500
9.669,508
9.670,512
9.671,518
9.672,523
9.673,524
9.674,521
9.675,523
9.676,523
9.677,512
9.678,503
9.679,495
9.680,487
9.681,485
9.682,487
9.683,491
9.684,495
9.685,502
9.686,506
9.687,511
9.688,520
9.689,527
9.690,527
9.691,524
9.692,521
9.693,508
9.694,490
9.695,481
9.696,471
9.697,467
9.698,470
9.699,475
9.700,484
9.701,492
9.702,501
9.703,509
9.704,517
9.705,526
9.706,533
9.707,537
9.708,543
9.709,551
9.710,551
9.711,548
9.712,548
9.713,545
9.714,551
9.715,564
9.716,577
9.717,591
9.718,609
9.719,627
9.720,641
9.721,655
9.722,668
9.723,676
9.724,683
9.725,691
9.726,692
9.727,679
9.728,664
9.729,647
9.730,628
9.731,616
9.732,608
9.733,603
9.734,599
9.735,599
9.736,598
9.737,593
9.738,590
9.739,581
9.740,570
9.741,560
9.742,551
9.743,536
9.744,516
9.745,499
9.746,481
9.747,467
9.748,461
9.749,458
9.750,458
9.751,459
9.752,463
9.753,464
9.754,465
9.755,467
9.756,466
9.757,463
9.758,460
9.759,457
9.760,447
9.761,439
9.762,434
9.763,425
9.764,425
9.765,429
9.766,436
9.767,445
9.768,454
9.769,463
9.770,471
9.771,481
9.772,488
9.773,492
9.774,491
9.775,493
9.776,491
9.777,481
9.778,475
9.779,468
9.780,460
9.781,457
9.782,458
9.783,463
9.784,468
9.785,478
9.786,487
9.787,494
9.788,504
9.789,510
9.790,514
9.791,516
9.792,519
9.793,513
9.794,503
9.795,496
9.796,486
9.797,478
9.798,478
9.799,480
9.800,486
9.801,493
9.802,505
9.803,513
9.804,518
9.805,524
9.806,527
9.807,526
9.808,526
9.809,527
9.810,515
9.811,503
9.812,494
9.813,484
9.814,481
9.815,483
9.816,486
9.817,492
9.818,502
9.819,510
9.820,516
9.821,523
9.822,528
9.823,530
9.824,527
9.825,527
9.826,526
9.827,516
9.828,508
9.829,499
9.830,490
9.831,489
9.832,491
9.833,497
9.834,504
9.835,514
9.836,521
9.837,526
9.838,532
9.839,535
9.840,534
9.841,531
9.842,532
9.843,525
9.844,515
9.845,508
9.846,500
9.847,496
9.848,498
9.849,502
9.850,508
9.851,515
9.852,524
9.853,531
9.854,538
9.855,543
9.856,543
9.857,541
9.858,539
9.859,537
9.860,527
9.861,518
9.862,513
9.863,504
9.864,499
9.865,499
9.866,502
9.867,508
9.868,517
9.869,526
9.870,531
9.871,537
9.872,542
9.873,543
9.874,540
9.875,541
9.876,539
9.877,528
9.878,521
9.879,514
9.880,506
9.881,504
9.882,505
9.883,509
9.884,516
9.885,526
9.886,534
9.887,539
9.888,548
9.889,553
9.890,555
9.891,554
9.892,552
9.893,542
9.894,530
9.895,524
9.896,514
9.897,507
9.898,509
9.899,514
9.900,522
9.901,531
9.902,540
9.903,546
9.904,553
9.905,560
9.906,565
9.907,565
9.908,565
9.909,564
9.910,553
9.911,541
9.912,533
9.913,523
9.914,520
9.915,524
9.916,529
9.917,537
9.918,545
9.919,554
9.920,560
9.921,568
9.922,575
9.923,577
9.924,574
9.925,575
9.926,573
9.927,563
9.928,554
9.929,547
9.930,539
9.931,539
9.932,542
9.933,549
9.934,556
9.935,564
9.936,569
9.937,574
9.938,580
9.939,582
9.940,581
9.941,578
9.942,579
9.943,573
9.944,562
9.945,555
9.946,545
9.947,539
9.948,539
9.949,541
9.950,547
9.951,555
9.952,563
9.953,567
9.954,571
9.955,577
9.956,580
9.957,579
9.958,579
9.959,575
9.960,564
9.961,555
9.962,548
9.963,536
9.964,531
9.965,534
9.966,536
9.967,539
9.968,544
9.969,549
9.970,553
9.971,560
9.972,563
9.973,562
9.974,558
9.975,557
9.976,552
9.977,540
9.978,530
9.979,521
9.980,511
9.981,510
9.982,511
9.983,513
9.984,517
9.985,524
9.986,526
9.987,528
9.988,534
9.989,535
9.990,534
9.991,530
9.992,529
9.993,520
9.994,507
9.995,499
9.996,489
9.997,480
9.998,478
9.999,477
10.000,479
10.001,483
10.002,488
10.003,490
10.004,493
10.005,498
10.006,498
10.007,494
10.008,492
10.009,490
10.010,478
10.011,467
10.012,457
10.013,444
10.014,439
10.015,441
10.016,445
10.017,450
10.018,457
10.019,464
10.020,468
10.021,475
10.022,480
10.023,480
10.024,476
10.025,476
10.026,472
10.027,461
10.028,452
10.029,444
10.030,435
10.031,433
10.032,434
10.033,437
10.034,441
10.035,449
10.036,455
10.037,460
10.038,467
10.039,470
10.040,472
10.041,472
10.042,473
10.043,464
10.044,453
10.045,446
10.046,438
10.047,433
10.048,435
10.049,437
10.050,444
10.051,449
10.052,457
10.053,462
10.054,467
10.055,473
10.056,475
10.057,473
10.058,475
10.059,478
10.060,471
10.061,463
10.062,457
10.063,446
10.064,442
10.065,443
10.066,445
10.067,451
10.068,459
10.069,467
10.070,471
10.071,478
10.072,482
10.073,483
10.074,482
10.075,482
10.076,478
10.077,466
10.078,458
10.079,450
10.080,443
10.081,445
10.082,448
10.083,453
10.084,459
10.085,469
10.086,477
10.087,483
10.088,489
10.089,492
10.090,492
10.091,490
10.092,490
10.093,484
10.094,474
10.095,468
10.096,460
10.097,453
10.098,454
10.099,457
10.100,463
10.101,469
10.102,478
10.103,485
10.104,492
10.105,497
10.106,499
10.107,500
10.108,502
10.109,501
10.110,491
10.111,482
10.112,475
10.113,466
10.114,463
10.115,466
10.116,471
10.117,477
10.118,486
10.119,495
10.120,499
10.121,506
10.122,512
10.123,514
10.124,512
10.125,513
10.126,508
10.127,495
10.128,484
10.129,474
10.130,464
10.131,463
10.132,465
10.133,472
10.134,477
10.135,487
10.136,495
10.137,501
10.138,508
10.139,512
10.140,512
10.141,512
10.142,515
10.143,509
10.144,499
10.145,491
10.146,478
10.147,470
10.148,469
10.149,470
10.150,473
10.151,480
10.152,489
10.153,495
10.154,502
10.155,508
10.156,511
10.157,509
10.158,510
10.159,510
10.160,501
10.161,492
10.162,487
10.163,476
10.164,470
10.165,471
10.166,476
10.167,480
10.168,486
10.169,492
10.170,497
10.171,505
10.172,509
10.173,511
10.174,507
10.175,508
10.176,503
10.177,493
10.178,485
10.179,476
10.180,468
10.181,467
10.182,470
10.183,475
10.184,481
10.185,489
10.186,493
10.187,497
10.188,507
10.189,512
10.190,511
10.191,510
10.192,510
10.193,503
10.194,492
10.195,486
10.196,478
10.197,473
10.198,473
10.199,476
10.200,481
10.201,488
10.202,496
10.203,502
10.204,508
10.205,512
10.206,512
10.207,508
10.208,509
10.209,510
10.210,501
10.211,491
10.212,485
10.213,477
10.214,475
10.215,477
10.216,478
10.217,480
10.218,487
10.219,494
10.220,498
10.221,506
10.222,513
10.223,514
10.224,511
10.225,511
10.226,508
10.227,499
10.228,492
10.229,484
10.230,475
10.231,473
10.232,474
10.233,479
10.234,483
10.235,493
10.236,501
10.237,507
10.238,514
10.239,515
10.240,513
10.241,511
10.242,512
10.243,505
10.244,494
10.245,487
10.246,479
10.247,475
10.248,476
10.249,479
10.250,486
10.251,495
10.252,505
10.253,512
10.254,515
10.255,519
10.256,520
10.257,520
10.258,521
10.259,519
10.260,509
10.261,500
10.262,494
10.263,483
10.264,479
10.265,483
10.266,488
10.267,494
10.268,502
10.269,510
10.270,515
10.271,524
10.272,528
10.273,528
10.274,524
10.275,524
10.276,521
10.277,510
10.278,501
10.279,491
10.280,483
10.281,483
10.282,485
10.283,489
10.284,494
10.285,503
10.286,511
10.287,517
10.288,526
10.289,530
10.290,530
10.291,529
10.292,531
10.293,524
10.294,514
10.295,507
10.296,497
10.297,492
10.298,494
10.299,496
10.300,500
10.301,506
10.302,514
10.303,519
10.304,524
10.305,530
10.306,531
10.307,528
10.308,527
10.309,527
10.310,516
10.311,507
10.312,499
10.313,489
10.314,487
10.315,489
10.316,491
10.317,496
10.318,505
10.319,514
10.320,519
10.321,526
10.322,531
10.323,534
10.324,533
10.325,535
10.326,531
10.327,519
10.328,510
10.329,501
10.330,494
10.331,492
10.332,493
10.333,495
10.334,499
10.335,507
10.336,513
10.337,520
10.338,529
10.339,536
10.340,536
10.341,535
10.342,534
10.343,525
10.344,513
10.345,506
10.346,498
10.347,493
10.348,494
10.349,496
10.350,500
10.351,507
10.352,516
10.353,521
10.354,527
10.355,531
10.356,534
10.357,532
10.358,532
10.359,531
10.360,521
10.361,513
10.362,507
10.363,497
10.364,494
10.365,495
10.366,498
10.367,504
10.368,514
10.369,520
10.370,522
10.371,528
10.372,533
10.373,535
10.374,532
10.375,535
10.376,531
10.377,520
10.378,510
10.379,501
10.380,493
10.381,492
10.382,494
10.383,499
10.384,503
10.385,511
10.386,519
10.387,526
10.388,533
10.389,534
10.390,532
10.391,531
10.392,532
10.393,524
10.394,512
10.395,503
10.396,494
10.397,491
10.398,494
10.399,498
10.400,503
10.401,508
10.402,515
10.403,520
10.404,526
10.405,531
10.406,532
10.407,529
10.408,531
10.409,529
10.410,518
10.411,507
10.412,500
10.413,491
10.414,488
10.415,492
10.416,495
10.417,500
10.418,507
10.419,514
10.420,519
10.421,527
10.422,533
10.423,536
10.424,532
10.425,532
10.426,528
10.427,515
10.428,505
10.429,496
10.430,488
10.431,488
10.432,492
10.433,498
10.434,504
10.435,512
10.436,518
10.437,524
10.438,531
10.439,534
10.440,533
10.441,532
10.442,534
10.443,526
10.444,515
10.445,506
10.446,497
10.447,494
10.448,496
10.449,498
10.450,504
10.451,512
10.452,519
10.453,523
10.454,529
10.455,536
10.456,537
10.457,534
10.458,534
10.459,534
10.460,523
10.461,514
10.462,508
10.463,498
10.464,494
10.465,495
10.466,497
10.467,502
10.468,510
10.469,516
10.470,521
10.471,527
10.472,533
10.473,534
10.474,531
10.475,531
10.476,527
10.477,516
10.478,508
10.479,499
10.480,493
10.481,493
10.482,496
10.483,501
10.484,506
10.485,514
10.486,519
10.487,524
10.488,530
10.489,534
10.490,534
10.491,533
10.492,534
10.493,526
10.494,516
10.495,511
10.496,501
10.497,494
10.498,494
10.499,497
10.500,504
10.501,512
10.502,521
10.503,526
10.504,532
10.505,537
10.506,538
10.507,535
10.508,534
10.509,531
10.510,520
10.511,511
10.512,504
10.513,497
10.514,498
10.515,504
10.516,509
10.517,514
10.518,520
10.519,527
10.520,530
10.521,537
10.522,542
10.523,545
10.524,544
10.525,546
10.526,541
10.527,528
10.528,519
10.529,512
10.530,504
10.531,502
10.532,503
10.533,508
10.534,512
10.535,521
10.536,529
10.537,535
10.538,541
10.539,543
10.540,543
10.541,541
10.542,540
10.543,531
10.544,521
10.545,513
10.546,502
10.547,493
10.548,492
10.549,493
10.550,497
10.551,502
10.552,509
10.553,515
10.554,522
10.555,526
10.556,528
10.557,525
10.558,526
10.559,525
10.560,514
10.561,504
10.562,497
10.563,486
10.564,484
10.565,486
10.566,488
10.567,492
10.568,501
10.569,508
10.570,512
10.571,519
10.572,521
10.573,521
10.574,518
10.575,520
10.576,517
10.577,507
10.578,499
10.579,490
10.580,483
10.581,483
10.582,487
10.583,495
10.584,502
10.585,510
10.586,515
10.587,519
10.588,524
10.589,526
10.590,524
10.591,522
10.592,521
10.593,512
10.594,501
10.595,495
10.596,487
10.597,484
10.598,487
10.599,490
10.600,496
10.601,503
10.602,512
10.603,518
10.604,524
10.605,529
10.606,531
10.607,528
10.608,529
10.609,528
10.610,518
10.611,507
10.612,500
10.613,490
10.614,487
10.615,491
10.616,494
10.617,500
10.618,510
10.619,519
10.620,525
10.621,532
10.622,534
10.623,533
10.624,529
10.625,529
10.626,525
10.627,512
10.628,503
10.629,494
10.630,484
10.631,483
10.632,484
10.633,488
10.634,493
10.635,501
10.636,507
10.637,511
10.638,516
10.639,517
10.640,515
10.641,514
10.642,514
10.643,505
10.644,494
10.645,486
10.646,477
10.647,472
10.648,476
10.649,480
10.650,487
10.651,499
10.652,513
10.653,524
10.654,537
10.655,550
10.656,560
10.657,567
10.658,575
10.659,582
10.660,579
10.661,579
10.662,580
10.663,579
10.664,586
10.665,596
10.666,609
10.667,624
10.668,640
10.669,655
10.670,667
10.671,681
10.672,689
10.673,688
10.674,679
10.675,671
10.676,658
10.677,637
10.678,621
10.679,604
10.680,588
10.681,580
10.682,575
10.683,572
10.684,568
10.685,564
10.686,559
10.687,555
10.688,551
10.689,543
10.690,531
10.691,521
10.692,516
10.693,503
10.694,487
10.695,474
10.696,460
10.697,450
10.698,449
10.699,447
10.700,447
10.701,449
10.702,454
10.703,456
10.704,462
10.705,467
10.706,469
10.707,466
10.708,466
10.709,467
10.710,459
10.711,452
10.712,448
10.713,440
10.714,440
10.715,445
10.716,450
10.717,457
10.718,467
10.719,476
10.720,483
10.721,492
10.722,497
10.723,500
10.724,499
10.725,500
10.726,496
10.727,485
10.728,475
10.729,465
10.730,458
10.731,460
10.732,466
10.733,472
10.734,478
10.735,487
10.736,495
10.737,501
10.738,509
10.739,514
10.740,515
10.741,515
10.742,517
10.743,511
10.744,500
10.745,491
10.746,480
10.747,476
10.748,479
10.749,483
10.750,490
10.751,498
10.752,507
10.753,514
10.754,521
10.755,527
10.756,531
10.757,530
10.758,531
10.759,529
10.760,518
10.761,508
10.762,499
10.763,488
10.764,487
10.765,491
10.766,496
10.767,503
10.768,511
10.769,516
10.770,519
10.771,526
10.772,531
10.773,532
10.774,528
10.775,530
10.776,526
10.777,514
10.778,506
10.779,499
10.780,492
10.781,493
10.782,496
10.783,502
10.784,508
10.785,515
10.786,521
10.787,526
10.788,532
10.789,536
10.790,536
10.791,535
10.792,535
10.793,528
10.794,518
10.795,512
10.796,502
10.797,498
10.798,499
10.799,504
10.800,511
10.801,519
10.802,527
10.803,531
10.804,536
10.805,541
10.806,543
10.807,540
10.808,538
10.809,536
10.810,525
10.811,515
10.812,508
10.813,499
10.814,497
10.815,500
10.816,505
10.817,511
10.818,519
10.819,527
10.820,532
10.821,539
10.822,544
10.823,545
10.824,542
10.825,543
10.826,537
10.827,526
10.828,518
10.829,509
10.830,502
10.831,503
10.832,508
10.833,515
10.834,523
10.835,534
10.836,542
10.837,549
10.838,555
10.839,557
10.840,554
10.841,551
10.842,551
10.843,545
10.844,535
10.845,527
10.846,516
10.847,512
10.848,514
10.849,515
10.850,521
10.851,528
10.852,536
10.853,542
10.854,546
10.855,550
10.856,552
10.857,552
10.858,553
10.859,552
10.860,542
10.861,534
10.862,527
10.863,520
10.864,519
10.865,525
10.866,531
10.867,538
10.868,547
10.869,555
10.870,559
10.871,567
10.872,572
10.873,573
10.874,571
10.875,573
10.876,569
10.877,559
10.878,551
10.879,542
10.880,534
10.881,533
10.882,536
10.883,540
10.884,545
10.885,555
10.886,560
10.887,566
10.888,572
10.889,574
10.890,572
10.891,570
10.892,569
10.893,559
10.894,547
10.895,541
10.896,532
10.897,527
10.898,529
10.899,532
10.900,538
10.901,545
10.902,553
10.903,559
10.904,567
10.905,573
10.906,575
10.907,573
10.908,571
10.909,565
10.910,550
10.911,539
10.912,530
10.913,520
10.914,519
10.915,521
10.916,524
10.917,528
10.918,535
10.919,540
10.920,542
10.921,547
10.922,550
10.923,549
10.924,545
10.925,545
10.926,540
10.927,528
10.928,519
10.929,508
10.930,499
10.931,495
10.932,493
10.933,495
10.934,497
10.935,504
10.936,508
10.937,510
10.938,515
10.939,517
10.940,515
10.941,513
10.942,512
10.943,503
10.944,490
10.945,480
10.946,468
10.947,462
10.948,461
10.949,462
10.950,465
10.951,471
10.952,477
10.953,480
10.954,485
10.955,489
10.956,489
10.957,484
10.958,481
10.959,478
10.960,466
10.961,455
10.962,447
10.963,436
10.964,433
10.965,433
10.966,436
10.967,442
10.968,451
10.969,458
10.970,463
10.971,471
10.972,473
10.973,473
10.974,469
10.975,469
10.976,465
10.977,455
10.978,446
10.979,434
10.980,424
10.981,425
10.982,428
10.983,434
10.984,440
10.985,451
10.986,459
10.987,465
10.988,472
10.989,475
10.990,473
10.991,471
10.992,471
10.993,464
10.994,455
10.995,447
10.996,436
10.997,431
10.998,433
10.999,437
11.000,443
11.001,450
11.002,459
11.003,464
11.004,471
11.005,476
11.006,478
11.007,477
11.008,477
11.009,478
11.010,468
11.011,459
11.012,450
11.013,441
11.014,439
11.015,441
11.016,443
11.017,449
11.018,458
11.019,466
11.020,471
11.021,480
11.022,485
11.023,487
11.024,486
11.025,486
11.026,481
11.027,470
11.028,464
11.029,455
11.030,449
11.031,450
11.032,454
11.033,459
11.034,465
11.035,475
11.036,482
11.037,487
11.038,495
11.039,497
11.040,495
11.041,493
11.042,493
11.043,487
11.044,478
11.045,471
11.046,461
11.047,456
11.048,458
11.049,462
11.050,468
11.051,476
11.052,486
11.053,492
11.054,499
11.055,506
11.056,510
11.057,509
11.058,508
11.059,508
11.060,498
11.061,488
11.062,481
11.063,472
11.064,471
11.065,473
11.066,474
11.067,479
11.068,487
11.069,496
11.070,501
11.071,508
11.072,511
11.073,511
11.074,509
11.075,511
11.076,508
11.077,498
11.078,491
11.079,481
11.080,475
11.081,475
11.082,478
11.083,485
11.084,492
11.085,500
11.086,507
11.087,511
11.088,518
11.089,521
11.090,521
11.091,519
11.092,519
11.093,508
11.094,496
11.095,488
11.096,479
11.097,476
11.098,480
11.099,484
11.100,492
11.101,500
11.102,510
11.103,515
11.104,523
11.105,529
11.106,531
11.107,528
11.108,529
11.109,528
11.110,517
11.111,506
11.112,496
11.113,486
11.114,484
11.115,486
11.116,491
11.117,497
11.118,504
11.119,510
11.120,515
11.121,521
11.122,524
11.123,524
11.124,522
11.125,524
11.126,520
11.127,512
11.128,507
11.129,498
11.130,491
11.131,490
11.132,492
11.133,497
11.134,503
11.135,513
11.136,519
11.137,523
11.138,531
11.139,534
11.140,530
11.141,527
11.142,527
11.143,520
11.144,510
11.145,504
11.146,493
11.147,489
11.148,491
11.149,494
11.150,498
11.151,504
11.152,513
11.153,518
11.154,524
11.155,530
11.156,533
11.157,532
11.158,533
11.159,532
11.160,521
11.161,510
11.162,503
11.163,494
11.164,492
11.165,494
11.166,497
11.167,502
11.168,510
11.169,517
11.170,522
11.171,529
11.172,534
11.173,536
11.174,532
11.175,533
11.176,529
11.177,517
11.178,510
11.179,502
11.180,495
11.181,495
11.182,497
11.183,504
11.184,510
11.185,519
11.186,525
11.187,529
11.188,534
11.189,536
11.190,535
11.191,535
11.192,535
11.193,526
11.194,516
11.195,510
11.196,499
11.197,494
11.198,494
11.199,495
11.200,499
11.201,506
11.202,515
11.203,521
11.204,528
11.205,535
11.206,537
11.207,535
11.208,538
11.209,538
11.210,529
11.211,518
11.212,510
11.213,499
11.214,497
11.215,500
11.216,502
11.217,508
11.218,518
11.219,525
11.220,530
11.221,537
11.222,540
11.223,541
11.224,537
11.225,537
11.226,532
11.227,520
11.228,511
11.229,501
11.230,494
11.231,494
11.232,496
11.233,502
11.234,508
11.235,516
11.236,523
11.237,529
11.238,538
11.239,541
11.240,539
11.241,536
11.242,536
11.243,528
11.244,519
11.245,513
11.246,502
11.247,496
11.248,496
11.249,497
11.250,504
11.251,510
11.252,519
11.253,525
11.254,531
11.255,537
11.256,539
11.257,537
11.258,538
11.259,537
11.260,527
11.261,519
11.262,510
11.263,499
11.264,496
11.265,498
11.266,502
11.267,509
11.268,517
11.269,523
11.270,527
11.271,533
11.272,537
11.273,537
11.274,535
11.275,537
11.276,532
11.277,520
11.278,512
11.279,501
11.280,494
11.281,495
11.282,499
11.283,504
11.284,511
11.285,520
11.286,526
11.287,531
11.288,536
11.289,536
11.290,534
11.291,534
11.292,536
11.293,528
11.294,519
11.295,513
11.296,504
11.297,501
11.298,504
11.299,508
11.300,515
11.301,522
11.302,534
11.303,541
11.304,547
11.305,546
11.306,542
11.307,536
11.308,535
11.309,532
11.310,522
11.311,513
11.312,505
11.313,496
11.314,494
11.315,498
11.316,501
11.317,506
11.318,515
11.319,523
11.320,529
11.321,536
11.322,540
11.323,539
11.324,535
11.325,535
11.326,529
11.327,517
11.328,508
11.329,497
11.330,491
11.331,493
11.332,495
11.333,500
11.334,507
11.335,516
11.336,523
11.337,528
11.338,536
11.339,539
11.340,538
11.341,537
11.342,540
11.343,533
11.344,522
11.345,514
11.346,504
11.347,500
11.348,502
11.349,505
11.350,512
11.351,519
11.352,526
11.353,529
11.354,533
11.355,536
11.356,536
11.357,533
11.358,534
11.359,532
11.360,521
11.361,513
11.362,507
11.363,497
11.364,495
11.365,495
11.366,499
11.367,504
11.368,515
11.369,524
11.370,529
11.371,537
11.372,541
11.373,541
11.374,540
11.375,541
11.376,538
11.377,526
11.378,517
11.379,507
11.380,499
11.381,499
11.382,502
11.383,507
11.384,511
11.385,518
11.386,522
11.387,527
11.388,533
11.389,537
11.390,537
11.391,536
11.392,537
11.393,529
11.394,519
11.395,512
11.396,503
11.397,499
11.398,501
11.399,504
11.400,510
11.401,518
11.402,526
11.403,531
11.404,536
11.405,542
11.406,543
11.407,541
11.408,541
11.409,539
11.410,528
11.411,519
11.412,510
11.413,500
11.414,497
11.415,499
11.416,502
11.417,507
11.418,514
11.419,519
11.420,524
11.421,532
11.422,537
11.423,539
11.424,537
11.425,539
11.426,536
11.427,525
11.428,517
11.429,508
11.430,499
11.431,497
11.432,499
11.433,505
11.434,512
11.435,521
11.436,525
11.437,529
11.438,535
11.439,538
11.440,537
11.441,537
11.442,540
11.443,532
11.444,522
11.445,515
11.446,503
11.447,497
11.448,497
11.449,499
11.450,504
11.451,511
11.452,518
11.453,524
11.454,530
11.455,535
11.456,538
11.457,534
11.458,534
11.459,531
11.460,518
11.461,510
11.462,503
11.463,494
11.464,492
11.465,495
11.466,499
11.467,505
11.468,514
11.469,519
11.470,523
11.471,529
11.472,533
11.473,536
11.474,535
11.475,537
11.476,534
11.477,525
11.478,518
11.479,508
11.480,500
11.481,498
11.482,498
11.483,503
11.484,508
11.485,516
11.486,521
11.487,525
11.488,531
11.489,535
11.490,535
11.491,535
11.492,535
11.493,528
11.494,520
11.495,515
11.496,505
11.497,500
11.498,500
11.499,503
11.500,509
11.501,516
11.502,526
11.503,533
11.504,539
11.505,542
11.506,543
11.507,542
11.508,543
11.509,542
11.510,532
11.511,523
11.512,514
11.513,505
11.514,503
11.515,505
11.516,508
11.517,512
11.518,519
11.519,526
11.520,531
11.521,537
11.522,540
11.523,540
11.524,538
11.525,539
11.526,534
11.527,523
11.528,515
11.529,506
11.530,499
11.531,498
11.532,500
11.533,505
11.534,510
11.535,517
11.536,521
11.537,525
11.538,530
11.539,533
11.540,530
11.541,528
11.542,527
11.543,517
11.544,507
11.545,500
11.546,490
11.547,487
11.548,488
11.549,491
11.550,497
11.551,505
11.552,512
11.553,517
11.554,523
11.555,528
11.556,528
11.557,526
11.558,526
11.559,525
11.560,514
11.561,505
11.562,498
11.563,488
11.564,484
11.565,485
11.566,489
11.567,496
11.568,505
11.569,512
11.570,516
11.571,522
11.572,525
11.573,525
11.574,523
11.575,525
11.576,521
11.577,511
11.578,505
11.579,495
11.580,484
11.581,482
11.582,483
11.583,488
11.584,495
11.585,503
11.586,512
11.587,519
11.588,527
11.589,529
11.590,526
11.591,524
11.592,525
11.593,515
11.594,503
11.595,495
11.596,484
11.597,480
11.598,483
11.599,487
11.600,495
11.601,502
11.602,509
11.603,515
11.604,522
11.605,528
11.606,530
11.607,531
11.608,534
11.609,531
11.610,517
11.611,507
11.612,496
11.613,483
11.614,480
11.615,480
11.616,483
11.617,489
11.618,499
11.619,506
11.620,509
11.621,513
11.622,515
11.623,515
11.624,513
11.625,514
11.626,510
11.627,499
11.628,490
11.629,482
11.630,474
11.631,475
11.632,479
11.633,487
11.634,496
11.635,508
11.636,517
11.637,527
11.638,541
11.639,550
11.640,558
11.641,567
11.642,576
11.643,578
11.644,577
11.645,578
11.646,576
11.647,580
11.648,589
11.649,599
11.650,613
11.651,629
11.652,647
11.653,662
11.654,674
11.655,686
11.656,694
11.657,694
11.658,691
11.659,684
11.660,665
11.661,647
11.662,630
11.663,607
11.664,595
11.665,587
11.666,580
11.667,576
11.668,575
11.669,572
11.670,563
11.671,559
11.672,556
11.673,550
11.674,540
11.675,532
11.676,518
11.677,499
11.678,483
11.679,468
11.680,455
11.681,449
11.682,446
11.683,446
11.684,446
11.685,449
11.686,451
11.687,453
11.688,458
11.689,461
11.690,461
11.691,462
11.692,466
11.693,460
11.694,450
11.695,443
11.696,434
11.697,432
11.698,434
11.699,438
11.700,448
11.701,458
11.702,468
11.703,478
11.704,488
11.705,496
11.706,498
11.707,496
11.708,497
11.709,496
11.710,486
11.711,478
11.712,470
11.713,460
11.714,460
11.715,465
11.716,470
11.717,475
11.718,484
11.719,492
11.720,499
11.721,508
11.722,514
11.723,518
11.724,518
11.725,520
11.726,515
11.727,503
11.728,496
11.729,487
11.730,479
11.731,482
11.732,485
11.733,492
11.734,498
11.735,505
11.736,510
11.737,513
11.738,519
11.739,522
11.740,523
11.741,525
11.742,529
11.743,522
11.744,511
11.745,505
11.746,494
11.747,488
11.748,489
11.749,491
11.750,496
11.751,504
11.752,513
11.753,519
11.754,525
11.755,529
11.756,529
11.757,528
11.758,531
11.759,532
11.760,523
11.761,513
11.762,505
11.763,495
11.764,492
11.765,492
11.766,494
11.767,499
11.768,508
11.769,516
11.770,522
11.771,531
11.772,536
11.773,537
11.774,535
11.775,537
11.776,534
11.777,523
11.778,516
11.779,506
11.780,499
11.781,499
11.782,502
11.783,506
11.784,511
11.785,519
11.786,525
11.787,532
11.788,540
11.789,543
11.790,543
11.791,544
11.792,547
11.793,539
11.794,530
11.795,523
11.796,511
11.797,505
11.798,506
11.799,507
11.800,511
11.801,517
11.802,525
11.803,530
11.804,536
11.805,542
11.806,544
11.807,542
11.808,541
11.809,539
11.810,529
11.811,521
11.812,514
11.813,506
11.814,507
11.815,512
11.816,516
