Fs=1000
t,x
0.000,566
0.001,558
0.002,547
0.003,533
0.004,515
0.005,487
0.006,461
0.007,449
0.008,453
0.009,463
0.010,486
0.011,513
0.012,538
0.013,549
0.014,554
0.015,552
0.016,544
0.017,531
0.018,524
0.019,514
0.020,495
0.021,473
0.022,452
0.023,431
0.024,424
0.025,430
0.026,440
0.027,469
0.028,498
0.029,519
0.030,531
0.031,536
0.032,534
0.033,527
0.034,521
0.035,512
0.036,498
0.037,480
0.038,455
0.039,424
0.040,402
0.041,399
0.042,407
0.043,428
0.044,463
0.045,499
0.046,523
0.047,542
0.048,547
0.049,542
0.050,535
0.051,521
0.052,501
0.053,482
0.054,457
0.055,422
0.056,397
0.057,387
0.058,393
0.059,410
0.060,449
0.061,492
0.062,524
0.063,546
0.064,554
0.065,546
0.066,523
0.067,501
0.068,487
0.069,475
0.070,463
0.071,440
0.072,412
0.073,391
0.074,391
0.075,405
0.076,422
0.077,451
0.078,481
0.079,505
0.080,517
0.081,524
0.082,525
0.083,519
0.084,518
0.085,508
0.086,490
0.087,474
0.088,448
0.089,423
0.090,407
0.091,414
0.092,432
0.093,456
0.094,485
0.095,507
0.096,529
0.097,537
0.098,539
0.099,534
0.100,520
0.101,501
0.102,484
0.103,473
0.104,458
0.105,439
0.106,423
0.107,420
0.108,423
0.109,426
0.110,451
0.111,486
0.112,516
0.113,536
0.114,545
0.115,550
0.116,549
0.117,530
0.118,512
0.119,496
0.120,484
0.121,465
0.122,444
0.123,423
0.124,419
0.125,427
0.126,440
0.127,466
0.128,487
0.129,506
0.130,521
0.131,528
0.132,526
0.133,520
0.134,515
0.135,503
0.136,486
0.137,472
0.138,450
0.139,428
0.140,419
0.141,426
0.142,439
0.143,459
0.144,488
0.145,511
0.146,530
0.147,543
0.148,551
0.149,548
0.150,542
0.151,533
0.152,511
0.153,494
0.154,479
0.155,455
0.156,430
0.157,414
0.158,416
0.159,424
0.160,450
0.161,480
0.162,511
0.163,529
0.164,539
0.165,541
0.166,535
0.167,533
0.168,527
0.169,514
0.170,504
0.171,481
0.172,452
0.173,435
0.174,432
0.175,439
0.176,458
0.177,491
0.178,523
0.179,544
0.180,559
0.181,561
0.182,553
0.183,542
0.184,529
0.185,512
0.186,492
0.187,477
0.188,452
0.189,431
0.190,417
0.191,420
0.192,430
0.193,451
0.194,480
0.195,506
0.196,525
0.197,541
0.198,548
0.199,546
0.200,543
0.201,535
0.202,524
0.203,511
0.204,494
0.205,473
0.206,458
0.207,452
0.208,457
0.209,464
0.210,486
0.211,517
0.212,541
0.213,558
0.214,572
0.215,576
0.216,569
0.217,567
0.218,564
0.219,550
0.220,528
0.221,500
0.222,476
0.223,452
0.224,444
0.225,447
0.226,459
0.227,491
0.228,524
0.229,547
0.230,564
0.231,573
0.232,574
0.233,562
0.234,551
0.235,538
0.236,519
0.237,500
0.238,481
0.239,454
0.240,440
0.241,445
0.242,455
0.243,489
0.244,524
0.245,550
0.246,568
0.247,579
0.248,578
0.249,567
0.250,554
0.251,541
0.252,525
0.253,508
0.254,488
0.255,462
0.256,443
0.257,440
0.258,445
0.259,450
0.260,474
0.261,508
0.262,534
0.263,552
0.264,564
0.265,566
0.266,563
0.267,553
0.268,540
0.269,522
0.270,507
0.271,494
0.272,473
0.273,446
0.274,438
0.275,442
0.276,453
0.277,481
0.278,505
0.279,522
0.280,538
0.281,551
0.282,548
0.283,541
0.284,532
0.285,513
0.286,499
0.287,487
0.288,462
0.289,433
0.290,414
0.291,413
0.292,425
0.293,447
0.294,477
0.295,504
0.296,529
0.297,548
0.298,556
0.299,546
0.300,534
0.301,524
0.302,511
0.303,498
0.304,481
0.305,457
0.306,435
0.307,428
0.308,433
0.309,448
0.310,477
0.311,515
0.312,548
0.313,565
0.314,574
0.315,564
0.316,549
0.317,536
0.318,524
0.319,511
0.320,492
0.321,471
0.322,454
0.323,438
0.324,438
0.325,447
0.326,470
0.327,510
0.328,534
0.329,542
0.330,543
0.331,547
0.332,546
0.333,540
0.334,530
0.335,516
0.336,502
0.337,488
0.338,473
0.339,456
0.340,436
0.341,436
0.342,442
0.343,453
0.344,475
0.345,499
0.346,516
0.347,537
0.348,544
0.349,539
0.350,530
0.351,513
0.352,496
0.353,486
0.354,469
0.355,443
0.356,421
0.357,412
0.358,423
0.359,438
0.360,472
0.361,497
0.362,522
0.363,548
0.364,568
0.365,576
0.366,582
0.367,583
0.368,576
0.369,560
0.370,543
0.371,528
0.372,513
0.373,507
0.374,521
0.375,543
0.376,575
0.377,615
0.378,652
0.379,681
0.380,703
0.381,721
0.382,723
0.383,706
0.384,678
0.385,649
0.386,619
0.387,589
0.388,560
0.389,531
0.390,509
0.391,500
0.392,503
0.393,519
0.394,543
0.395,552
0.396,553
0.397,543
0.398,534
0.399,521
0.400,506
0.401,489
0.402,469
0.403,451
0.404,425
0.405,393
0.406,367
0.407,357
0.408,358
0.409,368
0.410,394
0.411,414
0.412,426
0.413,439
0.414,451
0.415,459
0.416,455
0.417,441
0.418,425
0.419,410
0.420,403
0.421,391
0.422,376
0.423,368
0.424,373
0.425,386
0.426,399
0.427,433
0.428,461
0.429,486
0.430,504
0.431,511
0.432,502
0.433,491
0.434,478
0.435,462
0.436,449
0.437,437
0.438,420
0.439,401
0.440,395
0.441,408
0.442,423
0.443,446
0.444,483
0.445,519
0.446,546
0.447,558
0.448,554
0.449,544
0.450,539
0.451,524
0.452,509
0.453,501
0.454,491
0.455,472
0.456,456
0.457,461
0.458,476
0.459,477
0.460,498
0.461,526
0.462,555
0.463,575
0.464,581
0.465,583
0.466,579
0.467,570
0.468,559
0.469,542
0.470,525
0.471,496
0.472,469
0.473,453
0.474,457
0.475,467
0.476,486
0.477,523
0.478,556
0.479,578
0.480,595
0.481,600
0.482,593
0.483,585
0.484,574
0.485,554
0.486,534
0.487,518
0.488,500
0.489,477
0.490,461
0.491,463
0.492,475
0.493,499
0.494,536
0.495,567
0.496,586
0.497,599
0.498,601
0.499,597
0.500,585
0.501,570
0.502,558
0.503,550
0.504,536
0.505,510
0.506,491
0.507,483
0.508,484
0.509,491
0.510,520
0.511,551
0.512,575
0.513,588
0.514,596
0.515,603
0.516,595
0.517,584
0.518,568
0.519,553
0.520,536
0.521,515
0.522,498
0.523,486
0.524,488
0.525,500
0.526,520
0.527,557
0.528,593
0.529,614
0.530,623
0.531,621
0.532,611
0.533,600
0.534,588
0.535,573
0.536,560
0.537,548
0.538,526
0.539,504
0.540,495
0.541,506
0.542,524
0.543,549
0.544,578
0.545,611
0.546,635
0.547,651
0.548,658
0.549,652
0.550,639
0.551,627
0.552,615
0.553,603
0.554,576
0.555,544
0.556,518
0.557,514
0.558,526
0.559,542
0.560,573
0.561,606
0.562,634
0.563,653
0.564,664
0.565,663
0.566,654
0.567,644
0.568,632
0.569,614
0.570,594
0.571,564
0.572,535
0.573,520
0.574,518
0.575,521
0.576,537
0.577,571
0.578,601
0.579,624
0.580,642
0.581,650
0.582,649
0.583,641
0.584,624
0.585,603
0.586,579
0.587,558
0.588,531
0.589,507
0.590,488
0.591,495
0.592,507
0.593,537
0.594,577
0.595,606
0.596,618
0.597,620
0.598,609
0.599,592
0.600,578
0.601,562
0.602,543
0.603,526
0.604,504
0.605,476
0.606,454
0.607,451
0.608,457
0.609,464
0.610,487
0.611,516
0.612,547
0.613,567
0.614,580
0.615,583
0.616,574
0.617,558
0.618,535
0.619,516
0.620,499
0.621,475
0.622,440
0.623,414
0.624,411
0.625,420
0.626,438
0.627,467
0.628,501
0.629,522
0.630,540
0.631,544
0.632,538
0.633,531
0.634,521
0.635,505
0.636,487
0.637,468
0.638,442
0.639,415
0.640,404
0.641,409
0.642,419
0.643,447
0.644,484
0.645,510
0.646,527
0.647,537
0.648,531
0.649,526
0.650,523
0.651,511
0.652,496
0.653,482
0.654,452
0.655,413
0.656,385
0.657,381
0.658,391
0.659,408
0.660,442
0.661,476
0.662,504
0.663,528
0.664,539
0.665,536
0.666,525
0.667,515
0.668,500
0.669,483
0.670,467
0.671,443
0.672,415
0.673,394
0.674,395
0.675,404
0.676,423
0.677,456
0.678,491
0.679,515
0.680,535
0.681,543
0.682,539
0.683,527
0.684,512
0.685,496
0.686,480
0.687,463
0.688,437
0.689,416
0.690,406
0.691,406
0.692,414
0.693,440
0.694,478
0.695,509
0.696,536
0.697,550
0.698,555
0.699,544
0.700,533
0.701,523
0.702,512
0.703,494
0.704,462
0.705,425
0.706,398
0.707,390
0.708,395
0.709,414
0.710,455
0.711,493
0.712,515
0.713,533
0.714,544
0.715,546
0.716,541
0.717,534
0.718,522
0.719,507
0.720,489
0.721,461
0.722,430
0.723,408
0.724,408
0.725,421
0.726,443
0.727,479
0.728,517
0.729,544
0.730,561
0.731,570
0.732,568
0.733,556
0.734,540
0.735,517
0.736,495
0.737,471
0.738,440
0.739,413
0.740,401
0.741,408
0.742,424
0.743,454
0.744,491
0.745,524
0.746,547
0.747,565
0.748,569
0.749,565
0.750,555
0.751,541
0.752,519
0.753,495
0.754,463
0.755,430
0.756,403
0.757,398
0.758,410
0.759,428
0.760,466
0.761,504
0.762,532
0.763,551
0.764,560
0.765,559
0.766,552
0.767,542
0.768,527
0.769,510
0.770,491
0.771,464
0.772,436
0.773,418
0.774,414
0.775,424
0.776,448
0.777,487
0.778,524
0.779,550
0.780,566
0.781,574
0.782,566
0.783,551
0.784,536
0.785,518
0.786,499
0.787,479
0.788,449
0.789,422
0.790,409
0.791,413
0.792,425
0.793,455
0.794,495
0.795,531
0.796,556
0.797,572
0.798,573
0.799,567
0.800,560
0.801,544
0.802,519
0.803,499
0.804,474
0.805,442
0.806,418
0.807,417
0.808,425
0.809,442
0.810,477
0.811,517
0.812,547
0.813,574
0.814,587
0.815,586
0.816,575
0.817,560
0.818,538
0.819,517
0.820,497
0.821,468
0.822,437
0.823,417
0.824,417
0.825,426
0.826,450
0.827,491
0.828,529
0.829,557
0.830,577
0.831,580
0.832,575
0.833,567
0.834,554
0.835,538
0.836,521
0.837,500
0.838,468
0.839,437
0.840,427
0.841,434
0.842,446
0.843,475
0.844,519
0.845,557
0.846,583
0.847,595
0.848,594
0.849,583
0.850,571
0.851,552
0.852,531
0.853,510
0.854,485
0.855,453
0.856,423
0.857,418
0.858,428
0.859,444
0.860,479
0.861,515
0.862,545
0.863,565
0.864,575
0.865,574
0.866,563
0.867,553
0.868,537
0.869,516
0.870,495
0.871,456
0.872,423
0.873,399
0.874,400
0.875,411
0.876,443
0.877,490
0.878,531
0.879,557
0.880,574
0.881,583
0.882,573
0.883,559
0.884,545
0.885,525
0.886,506
0.887,484
0.888,447
0.889,412
0.890,396
0.891,404
0.892,418
0.893,449
0.894,491
0.895,528
0.896,555
0.897,570
0.898,570
0.899,562
0.900,550
0.901,532
0.902,512
0.903,494
0.904,467
0.905,435
0.906,407
0.907,403
0.908,414
0.909,432
0.910,471
0.911,512
0.912,544
0.913,563
0.914,572
0.915,575
0.916,570
0.917,556
0.918,538
0.919,517
0.920,493
0.921,459
0.922,427
0.923,407
0.924,412
0.925,425
0.926,451
0.927,492
0.928,529
0.929,553
0.930,570
0.931,578
0.932,576
0.933,566
0.934,553
0.935,534
0.936,510
0.937,483
0.938,449
0.939,417
0.940,405
0.941,406
0.942,416
0.943,449
0.944,492
0.945,528
0.946,550
0.947,564
0.948,568
0.949,563
0.950,552
0.951,535
0.952,511
0.953,491
0.954,464
0.955,433
0.956,410
0.957,414
0.958,432
0.959,460
0.960,510
0.961,563
0.962,605
0.963,635
0.964,652
0.965,658
0.966,656
0.967,655
0.968,652
0.969,643
0.970,630
0.971,600
0.972,572
0.973,559
0.974,566
0.975,579
0.976,600
0.977,636
0.978,665
0.979,675
0.980,679
0.981,678
0.982,665
0.983,644
0.984,617
0.985,582
0.986,545
0.987,508
0.988,462
0.989,415
0.990,388
0.991,383
0.992,386
0.993,414
0.994,449
0.995,480
0.996,499
0.997,508
0.998,506
0.999,491
1.000,477
1.001,455
1.002,426
1.003,398
1.004,366
1.005,332
1.006,305
1.007,299
1.008,307
1.009,326
1.010,368
1.011,413
1.012,449
1.013,473
1.014,487
1.015,490
1.016,486
1.017,479
1.018,463
1.019,444
1.020,427
1.021,397
1.022,366
1.023,347
1.024,352
1.025,368
1.026,402
1.027,452
1.028,499
1.029,531
1.030,551
1.031,556
1.032,550
1.033,543
1.034,531
1.035,511
1.036,491
1.037,465
1.038,427
1.039,393
1.040,382
1.041,391
1.042,408
1.043,449
1.044,505
1.045,552
1.046,586
1.047,608
1.048,611
1.049,600
1.050,584
1.051,564
1.052,541
1.053,518
1.054,488
1.055,451
1.056,417
1.057,412
1.058,421
1.059,441
1.060,488
1.061,539
1.062,583
1.063,614
1.064,626
1.065,621
1.066,607
1.067,594
1.068,575
1.069,551
1.070,522
1.071,482
1.072,442
1.073,416
1.074,421
1.075,435
1.076,467
1.077,519
1.078,567
1.079,601
1.080,624
1.081,630
1.082,623
1.083,611
1.084,594
1.085,568
1.086,542
1.087,512
1.088,468
1.089,426
1.090,411
1.091,420
1.092,437
1.093,481
1.094,535
1.095,581
1.096,613
1.097,634
1.098,643
1.099,639
1.100,627
1.101,607
1.102,579
1.103,550
1.104,514
1.105,469
1.106,431
1.107,424
1.108,438
1.109,461
1.110,510
1.111,563
1.112,607
1.113,636
1.114,647
1.115,643
1.116,635
1.117,626
1.118,606
1.119,583
1.120,556
1.121,518
1.122,476
1.123,450
1.124,448
1.125,457
1.126,488
1.127,537
1.128,584
1.129,622
1.130,650
1.131,663
1.132,659
1.133,649
1.134,636
1.135,611
1.136,583
1.137,553
1.138,512
1.139,478
1.140,463
1.141,470
1.142,489
1.143,534
1.144,589
1.145,638
1.146,671
1.147,690
1.148,696
1.149,688
1.150,672
1.151,652
1.152,627
1.153,600
1.154,564
1.155,527
1.156,498
1.157,495
1.158,505
1.159,524
1.160,568
1.161,615
1.162,649
1.163,669
1.164,671
1.165,662
1.166,647
1.167,636
1.168,614
1.169,588
1.170,563
1.171,527
1.172,491
1.173,467
1.174,465
1.175,472
1.176,499
1.177,547
1.178,594
1.179,626
1.180,649
1.181,658
1.182,652
1.183,637
1.184,616
1.185,588
1.186,562
1.187,536
1.188,500
1.189,468
1.190,458
1.191,463
1.192,472
1.193,503
1.194,547
1.195,588
1.196,615
1.197,628
1.198,626
1.199,612
1.200,591
1.201,565
1.202,537
1.203,510
1.204,474
1.205,435
1.206,404
1.207,402
1.208,411
1.209,430
1.210,479
1.211,528
1.212,566
1.213,589
1.214,596
1.215,591
1.216,579
1.217,563
1.218,537
1.219,512
1.220,490
1.221,457
1.222,417
1.223,390
1.224,390
1.225,401
1.226,431
1.227,479
1.228,522
1.229,553
1.230,571
1.231,576
1.232,569
1.233,554
1.234,536
1.235,511
1.236,487
1.237,462
1.238,427
1.239,391
1.240,380
1.241,385
1.242,398
1.243,439
1.244,487
1.245,524
1.246,551
1.247,566
1.248,565
1.249,555
1.250,543
1.251,525
1.252,500
1.253,475
1.254,441
1.255,401
1.256,366
1.257,360
1.258,369
1.259,388
1.260,439
1.261,494
1.262,534
1.263,560
1.264,569
1.265,567
1.266,556
1.267,543
1.268,524
1.269,497
1.270,468
1.271,426
1.272,380
1.273,353
1.274,358
1.275,374
1.276,413
1.277,469
1.278,523
1.279,560
1.280,583
1.281,591
1.282,587
1.283,575
1.284,557
1.285,529
1.286,501
1.287,467
1.288,420
1.289,372
1.290,353
1.291,359
1.292,376
1.293,424
1.294,484
1.295,534
1.296,568
1.297,589
1.298,594
1.299,585
1.300,572
1.301,549
1.302,515
1.303,484
1.304,445
1.305,401
1.306,364
1.307,357
1.308,366
1.309,389
1.310,444
1.311,504
1.312,547
1.313,578
1.314,591
1.315,588
1.316,577
1.317,562
1.318,538
1.319,510
1.320,478
1.321,434
1.322,386
1.323,353
1.324,354
1.325,370
1.326,411
1.327,476
1.328,534
1.329,575
1.330,605
1.331,614
1.332,602
1.333,585
1.334,564
1.335,537
1.336,506
1.337,470
1.338,428
1.339,387
1.340,371
1.341,375
1.342,391
1.343,438
1.344,494
1.345,540
1.346,570
1.347,585
1.348,585
1.349,576
1.350,567
1.351,549
1.352,520
1.353,492
1.354,454
1.355,412
1.356,379
1.357,379
1.358,392
1.359,423
1.360,475
1.361,525
1.362,565
1.363,589
1.364,598
1.365,589
1.366,575
1.367,560
1.368,541
1.369,519
1.370,492
1.371,452
1.372,414
1.373,389
1.374,386
1.375,396
1.376,428
1.377,477
1.378,519
1.379,550
1.380,569
1.381,575
1.382,569
1.383,562
1.384,553
1.385,535
1.386,511
1.387,481
1.388,443
1.389,411
1.390,401
1.391,407
1.392,419
1.393,456
1.394,499
1.395,539
1.396,569
1.397,585
1.398,582
1.399,570
1.400,556
1.401,542
1.402,524
1.403,503
1.404,472
1.405,438
1.406,410
1.407,407
1.408,417
1.409,440
1.410,480
1.411,520
1.412,556
1.413,583
1.414,596
1.415,596
1.416,587
1.417,574
1.418,550
1.419,518
1.420,492
1.421,460
1.422,423
1.423,402
1.424,403
1.425,416
1.426,446
1.427,489
1.428,526
1.429,551
1.430,568
1.431,575
1.432,571
1.433,563
1.434,552
1.435,536
1.436,514
1.437,489
1.438,457
1.439,432
1.440,425
1.441,434
1.442,452
1.443,488
1.444,528
1.445,562
1.446,584
1.447,595
1.448,598
1.449,590
1.450,580
1.451,566
1.452,548
1.453,527
1.454,497
1.455,463
1.456,436
1.457,432
1.458,438
1.459,452
1.460,486
1.461,524
1.462,556
1.463,577
1.464,583
1.465,575
1.466,560
1.467,546
1.468,528
1.469,505
1.470,479
1.471,442
1.472,408
1.473,393
1.474,399
1.475,415
1.476,446
1.477,488
1.478,522
1.479,546
1.480,563
1.481,568
1.482,560
1.483,545
1.484,530
1.485,510
1.486,489
1.487,468
1.488,442
1.489,421
1.490,413
1.491,417
1.492,426
1.493,460
1.494,502
1.495,537
1.496,559
1.497,572
1.498,573
1.499,562
1.500,552
1.501,540
1.502,521
1.503,498
1.504,464
1.505,427
1.506,399
1.507,399
1.508,414
1.509,440
1.510,481
1.511,522
1.512,558
1.513,582
1.514,590
1.515,581
1.516,567
1.517,548
1.518,528
1.519,508
1.520,489
1.521,460
1.522,429
1.523,415
1.524,422
1.525,440
1.526,472
1.527,511
1.528,545
1.529,568
1.530,576
1.531,572
1.532,562
1.533,553
1.534,541
1.535,525
1.536,510
1.537,487
1.538,456
1.539,430
1.540,419
1.541,427
1.542,445
1.543,485
1.544,523
1.545,551
1.546,565
1.547,572
1.548,563
1.549,549
1.550,535
1.551,521
1.552,506
1.553,490
1.554,462
1.555,434
1.556,419
1.557,429
1.558,451
1.559,485
1.560,538
1.561,586
1.562,623
1.563,652
1.564,668
1.565,670
1.566,663
1.567,657
1.568,650
1.569,641
1.570,628
1.571,604
1.572,576
1.573,564
1.574,572
1.575,584
1.576,609
1.577,639
1.578,660
1.579,670
1.580,672
1.581,665
1.582,647
1.583,627
1.584,608
1.585,584
1.586,556
1.587,518
1.588,469
1.589,422
1.590,396
1.591,390
1.592,395
1.593,419
1.594,448
1.595,474
1.596,490
1.597,497
1.598,492
1.599,476
1.600,456
1.601,434
1.602,412
1.603,392
1.604,369
1.605,340
1.606,319
1.607,318
1.608,323
1.609,343
1.610,383
1.611,423
1.612,453
1.613,473
1.614,483
1.615,482
1.616,477
1.617,471
1.618,458
1.619,441
1.620,425
1.621,403
1.622,384
1.623,376
1.624,381
1.625,394
1.626,423
1.627,463
1.628,499
1.629,524
1.630,542
1.631,549
1.632,544
1.633,539
1.634,533
1.635,518
1.636,502
1.637,476
1.638,445
1.639,422
1.640,418
1.641,428
1.642,449
1.643,489
1.644,532
1.645,564
1.646,581
1.647,586
1.648,582
1.649,572
1.650,564
1.651,554
1.652,542
1.653,528
1.654,504
1.655,480
1.656,457
1.657,452
1.658,455
1.659,475
1.660,515
1.661,554
1.662,581
1.663,599
1.664,607
1.665,602
1.666,594
1.667,584
1.668,567
1.669,548
1.670,527
1.671,493
1.672,463
1.673,448
1.674,454
1.675,466
1.676,493
1.677,531
1.678,561
1.679,581
1.680,595
1.681,597
1.682,590
1.683,583
1.684,575
1.685,559
1.686,536
1.687,512
1.688,487
1.689,466
1.690,461
1.691,468
1.692,483
1.693,518
1.694,555
1.695,584
1.696,604
1.697,615
1.698,614
1.699,605
1.700,593
1.701,576
1.702,560
1.703,543
1.704,516
1.705,487
1.706,468
1.707,467
1.708,478
1.709,498
1.710,533
1.711,568
1.712,592
1.713,609
1.714,616
1.715,612
1.716,601
1.717,589
1.718,576
1.719,560
1.720,542
1.721,518
1.722,497
1.723,488
1.724,493
1.725,507
1.726,533
1.727,568
1.728,598
1.729,620
1.730,631
1.731,631
1.732,625
1.733,615
1.734,604
1.735,592
1.736,579
1.737,563
1.738,542
1.739,520
1.740,513
1.741,516
1.742,527
1.743,556
1.744,592
1.745,623
1.746,645
1.747,659
1.748,662
1.749,657
1.750,646
1.751,629
1.752,610
1.753,593
1.754,569
1.755,543
1.756,524
1.757,525
1.758,534
1.759,553
1.760,587
1.761,620
1.762,643
1.763,657
1.764,657
1.765,647
1.766,636
1.767,623
1.768,606
1.769,587
1.770,568
1.771,542
1.772,520
1.773,510
1.774,515
1.775,531
1.776,556
1.777,585
1.778,610
1.779,626
1.780,636
1.781,632
1.782,618
1.783,604
1.784,586
1.785,565
1.786,544
1.787,523
1.788,498
1.789,475
1.790,468
1.791,471
1.792,484
1.793,515
1.794,547
1.795,572
1.796,584
1.797,590
1.798,586
1.799,578
1.800,569
1.801,554
1.802,535
1.803,517
1.804,493
1.805,472
1.806,457
1.807,456
1.808,465
1.809,479
1.810,500
1.811,523
1.812,535
1.813,545
1.814,547
1.815,539
1.816,529
1.817,518
1.818,505
1.819,495
1.820,481
1.821,459
1.822,440
1.823,432
1.824,438
1.825,446
1.826,464
1.827,487
1.828,511
1.829,524
1.830,530
1.831,527
1.832,519
1.833,512
1.834,510
1.835,502
1.836,492
1.837,474
1.838,449
1.839,425
1.840,417
1.841,418
1.842,425
1.843,448
1.844,478
1.845,502
1.846,518
1.847,527
1.848,522
1.849,512
1.850,503
1.851,491
1.852,480
1.853,469
1.854,449
1.855,426
1.856,410
1.857,412
1.858,418
1.859,433
1.860,462
1.861,491
1.862,512
1.863,522
1.864,529
1.865,527
1.866,518
1.867,509
1.868,495
1.869,481
1.870,461
1.871,436
1.872,415
1.873,407
1.874,412
1.875,424
1.876,447
1.877,476
1.878,500
1.879,514
1.880,523
1.881,523
1.882,516
1.883,508
1.884,497
1.885,485
1.886,473
1.887,460
1.888,445
1.889,432
1.890,435
1.891,444
1.892,457
1.893,481
1.894,504
1.895,519
1.896,526
1.897,532
1.898,531
1.899,526
1.900,518
1.901,506
1.902,492
1.903,478
1.904,459
1.905,438
1.906,421
1.907,422
1.908,429
1.909,450
1.910,485
1.911,515
1.912,530
1.913,540
1.914,541
1.915,533
1.916,522
1.917,509
1.918,495
1.919,483
1.920,470
1.921,453
1.922,436
1.923,426
1.924,430
1.925,442
1.926,467
1.927,499
1.928,522
1.929,534
1.930,540
1.931,541
1.932,536
1.933,529
1.934,521
1.935,509
1.936,499
1.937,481
1.938,459
1.939,437
1.940,430
1.941,435
1.942,446
1.943,470
1.944,497
1.945,518
1.946,529
1.947,533
1.948,530
1.949,524
1.950,515
1.951,503
1.952,488
1.953,476
1.954,458
1.955,441
1.956,429
1.957,431
1.958,440
1.959,460
1.960,489
1.961,515
1.962,529
1.963,535
1.964,536
1.965,535
1.966,530
1.967,522
1.968,509
1.969,495
1.970,481
1.971,460
1.972,440
1.973,433
1.974,439
1.975,451
1.976,473
1.977,498
1.978,520
1.979,537
1.980,547
1.981,545
1.982,540
1.983,534
1.984,526
1.985,513
1.986,497
1.987,477
1.988,453
1.989,433
1.990,425
1.991,427
1.992,439
1.993,468
1.994,501
1.995,526
1.996,542
1.997,552
1.998,551
1.999,543
2.000,533
2.001,520
2.002,510
2.003,500
2.004,478
2.005,453
2.006,437
2.007,439
2.008,449
2.009,467
2.010,494
2.011,520
2.012,537
2.013,547
2.014,550
2.015,546
2.016,534
2.017,521
2.018,509
2.019,498
2.020,483
2.021,462
2.022,448
2.023,445
2.024,454
2.025,468
2.026,490
2.027,517
2.028,538
2.029,550
2.030,556
2.031,556
2.032,550
2.033,540
2.034,531
2.035,520
2.036,508
2.037,488
2.038,470
2.039,456
2.040,453
2.041,457
2.042,471
2.043,499
2.044,527
2.045,549
2.046,563
2.047,570
2.048,566
2.049,559
2.050,555
2.051,546
2.052,530
2.053,511
2.054,487
2.055,467
2.056,458
2.057,462
2.058,470
2.059,486
2.060,508
2.061,526
2.062,536
2.063,544
2.064,550
2.065,550
2.066,544
2.067,536
2.068,526
2.069,514
2.070,498
2.071,476
2.072,457
2.073,448
2.074,451
2.075,458
2.076,475
2.077,498
2.078,517
2.079,527
2.080,531
2.081,527
2.082,523
2.083,518
2.084,514
2.085,505
2.086,495
2.087,480
2.088,465
2.089,454
2.090,455
2.091,460
2.092,468
2.093,484
2.094,501
2.095,515
2.096,523
2.097,529
2.098,529
2.099,525
2.100,522
2.101,513
2.102,500
2.103,488
2.104,472
2.105,458
2.106,447
2.107,447
2.108,455
2.109,472
2.110,492
2.111,508
2.112,518
2.113,524
2.114,527
2.115,525
2.116,524
2.117,521
2.118,514
2.119,503
2.120,488
2.121,473
2.122,460
2.123,454
2.124,457
2.125,463
2.126,477
2.127,497
2.128,516
2.129,527
2.130,536
2.131,540
2.132,533
2.133,522
2.134,513
2.135,504
2.136,493
2.137,479
2.138,463
2.139,453
2.140,455
2.141,460
2.142,469
2.143,488
2.144,511
2.145,525
2.146,531
2.147,532
2.148,527
2.149,517
2.150,508
2.151,499
2.152,491
2.153,484
2.154,473
2.155,461
2.156,450
2.157,448
2.158,455
2.159,473
2.160,497
2.161,521
2.162,539
2.163,553
2.164,563
2.165,561
2.166,559
2.167,557
2.168,555
2.169,552
2.170,551
2.171,549
2.172,546
2.173,550
2.174,559
2.175,574
2.176,600
2.177,631
2.178,657
2.179,676
2.180,691
2.181,698
2.182,696
2.183,685
2.184,668
2.185,644
2.186,620
2.187,593
2.188,565
2.189,543
2.190,530
2.191,522
2.192,522
2.193,534
2.194,546
2.195,555
2.196,556
2.197,549
2.198,536
2.199,519
2.200,499
2.201,475
2.202,451
2.203,430
2.204,405
2.205,383
2.206,368
2.207,367
2.208,370
2.209,379
2.210,397
2.211,415
2.212,425
2.213,432
2.214,435
2.215,435
2.216,430
2.217,423
2.218,412
2.219,400
2.220,392
2.221,381
2.222,375
2.223,378
2.224,387
2.225,401
2.226,422
2.227,450
2.228,474
2.229,487
2.230,496
2.231,498
2.232,495
2.233,488
2.234,483
2.235,479
2.236,475
2.237,463
2.238,448
2.239,436
2.240,436
2.241,442
2.242,448
2.243,461
2.244,480
2.245,498
2.246,510
2.247,519
2.248,523
2.249,524
2.250,527
2.251,523
2.252,514
2.253,502
2.254,487
2.255,477
2.256,474
2.257,477
2.258,486
2.259,503
2.260,523
2.261,539
2.262,546
2.263,546
2.264,546
2.265,547
2.266,544
2.267,535
2.268,526
2.269,514
2.270,503
2.271,490
2.272,481
2.273,476
2.274,480
2.275,488
2.276,504
2.277,518
2.278,531
2.279,544
2.280,558
2.281,564
2.282,563
2.283,555
2.284,547
2.285,540
2.286,534
2.287,522
2.288,513
2.289,504
2.290,502
2.291,507
2.292,517
2.293,532
2.294,545
2.295,551
2.296,556
2.297,557
2.298,553
2.299,547
2.300,540
2.301,533
2.302,530
2.303,529
2.304,524
2.305,515
2.306,509
2.307,513
2.308,524
2.309,539
2.310,558
2.311,573
2.312,582
2.313,585
2.314,582
2.315,569
2.316,560
2.317,558
2.318,555
2.319,551
2.320,541
2.321,529
2.322,521
2.323,521
2.324,527
2.325,538
2.326,551
2.327,564
2.328,574
2.329,579
2.330,579
2.331,572
2.332,566
2.333,559
2.334,552
2.335,547
2.336,543
2.337,543
2.338,546
2.339,552
2.340,561
2.341,571
2.342,584
2.343,594
2.344,600
2.345,604
2.346,604
2.347,603
2.348,593
2.349,583
2.350,573
2.351,564
2.352,561
2.353,562
2.354,567
2.355,576
2.356,583
2.357,591
2.358,598
2.359,607
2.360,614
2.361,618
2.362,617
2.363,607
2.364,597
2.365,588
2.366,579
2.367,573
2.368,572
2.369,572
2.370,571
2.371,569
2.372,575
2.373,580
2.374,582
2.375,587
2.376,593
2.377,605
2.378,622
2.379,621
2.380,607
2.381,588
2.382,572
2.383,561
2.384,554
2.385,550
2.386,547
2.387,548
2.388,546
2.389,547
2.390,552
2.391,559
2.392,567
2.393,573
2.394,579
2.395,581
2.396,577
2.397,575
2.398,564
2.399,547
2.400,538
2.401,529
2.402,519
2.403,515
2.404,512
2.405,505
2.406,506
2.407,511
2.408,517
2.409,529
2.410,537
2.411,539
2.412,536
2.413,531
2.414,530
2.415,523
2.416,508
2.417,497
2.418,490
2.419,481
2.420,475
2.421,472
2.422,477
2.423,486
2.424,497
2.425,505
2.426,510
2.427,511
2.428,510
2.429,502
2.430,499
2.431,499
2.432,497
2.433,489
2.434,479
2.435,474
2.436,471
2.437,462
2.438,458
2.439,462
2.440,472
2.441,480
2.442,492
2.443,503
2.444,503
2.445,498
2.446,492
2.447,489
2.448,481
2.449,472
2.450,468
2.451,465
2.452,463
2.453,465
2.454,468
2.455,470
2.456,471
2.457,480
2.458,486
2.459,494
2.460,497
2.461,498
2.462,496
2.463,488
2.464,481
2.465,477
2.466,478
2.467,476
2.468,475
2.469,476
2.470,477
2.471,476
2.472,472
2.473,469
2.474,461
2.475,467
2.476,483
2.477,492
2.478,492
2.479,487
2.480,482
2.481,477
2.482,472
2.483,478
2.484,475
2.485,464
2.486,452
2.487,449
2.488,447
2.489,455
2.490,467
2.491,477
2.492,488
2.493,499
2.494,504
2.495,503
2.496,494
2.497,489
2.498,489
2.499,488
2.500,480
2.501,470
2.502,465
2.503,461
2.504,460
2.505,467
2.506,475
2.507,484
2.508,494
2.509,503
2.510,509
2.511,512
2.512,508
2.513,500
2.514,491
2.515,485
2.516,480
2.517,477
2.518,476
2.519,475
2.520,476
2.521,480
2.522,481
2.523,486
2.524,495
2.525,507
2.526,515
2.527,522
2.528,522
2.529,515
2.530,510
2.531,503
2.532,496
2.533,490
2.534,480
2.535,472
2.536,469
2.537,470
2.538,474
2.539,478
2.540,489
2.541,502
2.542,515
2.543,526
2.544,532
2.545,533
2.546,531
2.547,521
2.548,511
2.549,499
2.550,485
2.551,480
2.552,479
2.553,477
2.554,478
2.555,482
2.556,488
2.557,497
2.558,507
2.559,518
2.560,526
2.561,529
2.562,526
2.563,518
2.564,515
2.565,506
2.566,495
2.567,482
2.568,475
2.569,476
2.570,475
2.571,473
2.572,476
2.573,482
2.574,491
2.575,502
2.576,516
2.577,525
2.578,526
2.579,523
2.580,515
2.581,508
2.582,504
2.583,496
2.584,490
2.585,487
2.586,487
2.587,483
2.588,481
2.589,481
2.590,484
2.591,490
2.592,500
2.593,510
2.594,520
2.595,525
2.596,523
2.597,518
2.598,511
2.599,508
2.600,505
2.601,499
2.602,497
2.603,495
2.604,493
2.605,493
2.606,495
2.607,497
2.608,503
2.609,513
2.610,520
2.611,527
2.612,529
2.613,526
2.614,524
2.615,520
2.616,518
2.617,502
2.618,487
2.619,485
2.620,485
2.621,487
2.622,498
2.623,509
2.624,515
2.625,516
2.626,522
2.627,533
2.628,538
2.629,532
2.630,528
2.631,524
2.632,518
2.633,511
2.634,505
2.635,505
2.636,504
2.637,501
2.638,502
2.639,504
2.640,508
2.641,513
2.642,521
2.643,526
2.644,532
2.645,533
2.646,530
2.647,527
2.648,519
2.649,514
2.650,509
2.651,504
2.652,499
2.653,493
2.654,491
2.655,496
2.656,501
2.657,506
2.658,508
2.659,516
2.660,521
2.661,525
2.662,524
2.663,525
2.664,526
2.665,519
2.666,507
2.667,494
2.668,484
2.669,475
2.670,471
2.671,469
2.672,470
2.673,475
2.674,483
2.675,494
2.676,503
2.677,510
2.678,513
2.679,508
2.680,505
2.681,502
2.682,492
2.683,483
2.684,478
2.685,479
2.686,478
2.687,471
2.688,474
2.689,478
2.690,485
2.691,490
2.692,502
2.693,512
2.694,518
2.695,519
2.696,513
2.697,508
2.698,502
2.699,496
2.700,489
2.701,485
2.702,481
2.703,480
2.704,479
2.705,481
2.706,492
2.707,502
2.708,512
2.709,515
2.710,517
2.711,524
2.712,525
2.713,519
2.714,511
2.715,504
2.716,497
2.717,491
2.718,488
2.719,480
2.720,473
2.721,472
2.722,475
2.723,484
2.724,496
2.725,510
2.726,524
2.727,530
2.728,528
2.729,522
2.730,521
2.731,517
2.732,506
2.733,493
2.734,479
2.735,470
2.736,466
2.737,465
2.738,468
2.739,472
2.740,480
2.741,491
2.742,502
2.743,508
2.744,514
2.745,516
2.746,509
2.747,506
2.748,503
2.749,502
2.750,503
2.751,505
2.752,510
2.753,519
2.754,529
2.755,543
2.756,555
2.757,564
2.758,580
2.759,598
2.760,611
2.761,620
2.762,625
2.763,626
2.764,628
2.765,627
2.766,628
2.767,631
2.768,630
2.769,624
2.770,610
2.771,599
2.772,599
2.773,600
2.774,598
2.775,600
2.776,602
2.777,601
2.778,591
2.779,568
2.780,542
2.781,518
2.782,495
2.783,476
2.784,462
2.785,449
2.786,439
2.787,434
2.788,433
2.789,434
2.790,440
2.791,445
2.792,448
2.793,447
2.794,447
2.795,440
2.796,428
2.797,418
2.798,410
2.799,407
2.800,406
2.801,408
2.802,412
2.803,410
2.804,402
2.805,400
2.806,404
2.807,414
2.808,425
2.809,437
2.810,448
2.811,459
2.812,461
2.813,457
2.814,454
2.815,453
2.816,452
2.817,452
2.818,452
2.819,451
2.820,447
2.821,445
2.822,446
2.823,455
2.824,466
2.825,480
2.826,493
2.827,504
2.828,508
2.829,505
2.830,501
2.831,493
2.832,487
2.833,480
2.834,474
2.835,475
2.836,477
2.837,476
2.838,482
2.839,491
2.840,501
2.841,512
2.842,526
2.843,537
2.844,545
2.845,546
2.846,541
2.847,539
2.848,531
2.849,523
2.850,518
2.851,514
2.852,513
2.853,511
2.854,507
2.855,509
2.856,513
2.857,519
2.858,528
2.859,544
2.860,557
2.861,563
2.862,558
2.863,550
2.864,544
2.865,537
2.866,529
2.867,524
2.868,521
2.869,523
2.870,523
2.871,519
2.872,519
2.873,525
2.874,530
2.875,538
2.876,549
2.877,555
2.878,559
2.879,555
2.880,552
2.881,552
2.882,546
2.883,536
2.884,527
2.885,521
2.886,518
2.887,519
2.888,527
2.889,538
2.890,547
2.891,552
2.892,560
2.893,562
2.894,562
2.895,560
2.896,551
2.897,545
2.898,540
2.899,537
2.900,534
2.901,530
2.902,530
2.903,527
2.904,526
2.905,531
2.906,539
2.907,547
2.908,559
2.909,570
2.910,577
2.911,580
2.912,577
2.913,572
2.914,567
2.915,559
2.916,549
2.917,541
2.918,537
2.919,537
2.920,538
2.921,543
2.922,551
2.923,561
2.924,569
2.925,579
2.926,591
2.927,598
2.928,601
2.929,595
2.930,593
2.931,590
2.932,585
2.933,579
2.934,573
2.935,572
2.936,572
2.937,570
2.938,574
2.939,580
2.940,586
2.941,594
2.942,605
2.943,614
2.944,615
2.945,610
2.946,602
2.947,598
2.948,594
2.949,592
2.950,587
2.951,580
2.952,576
2.953,573
2.954,571
2.955,575
2.956,584
2.957,588
2.958,594
2.959,600
2.960,602
2.961,603
2.962,597
2.963,588
2.964,580
2.965,572
2.966,564
2.967,556
2.968,551
2.969,550
2.970,549
2.971,551
2.972,556
2.973,564
2.974,566
2.975,571
2.976,577
2.977,582
2.978,580
2.979,569
2.980,557
2.981,547
2.982,540
2.983,533
2.984,526
2.985,521
2.986,518
2.987,515
2.988,518
2.989,522
2.990,524
2.991,528
2.992,534
2.993,539
2.994,542
2.995,541
2.996,532
2.997,522
2.998,513
2.999,504
3.000,496
3.001,488
3.002,481
3.003,476
3.004,478
3.005,488
3.006,501
3.007,507
3.008,511
3.009,517
3.010,521
3.011,519
3.012,512
3.013,503
3.014,496
3.015,487
3.016,479
3.017,473
3.018,468
3.019,464
3.020,462
3.021,462
3.022,462
3.023,466
3.024,474
3.025,482
3.026,495
3.027,501
3.028,502
3.029,496
3.030,490
3.031,483
3.032,476
3.033,467
3.034,455
3.035,447
3.036,444
3.037,443
3.038,449
3.039,452
3.040,455
3.041,464
3.042,476
3.043,484
3.044,490
3.045,489
3.046,480
3.047,471
3.048,463
3.049,454
3.050,446
3.051,442
3.052,443
3.053,444
3.054,447
3.055,453
3.056,461
3.057,470
3.058,480
3.059,488
3.060,495
3.061,501
3.062,499
3.063,492
3.064,487
3.065,477
3.066,468
3.067,463
3.068,461
3.069,462
3.070,463
3.071,468
3.072,478
3.073,487
3.074,494
3.075,492
3.076,490
3.077,492
3.078,494
3.079,489
3.080,484
3.081,480
3.082,476
3.083,474
3.084,470
3.085,465
3.086,459
3.087,456
3.088,459
3.089,465
3.090,470
3.091,477
3.092,485
3.093,492
3.094,495
3.095,492
3.096,487
3.097,485
3.098,483
3.099,479
3.100,474
3.101,469
3.102,465
3.103,464
3.104,464
3.105,468
3.106,476
3.107,486
3.108,498
3.109,512
3.110,521
3.111,525
3.112,523
3.113,515
3.114,505
3.115,496
3.116,491
3.117,485
3.118,477
3.119,472
3.120,469
3.121,470
3.122,480
3.123,494
3.124,502
3.125,508
3.126,517
3.127,521
3.128,519
3.129,508
3.130,499
3.131,490
3.132,485
3.133,479
3.134,474
3.135,471
3.136,469
3.137,467
3.138,470
3.139,475
3.140,480
3.141,487
3.142,500
3.143,511
3.144,517
3.145,519
3.146,516
3.147,512
3.148,508
3.149,504
3.150,499
3.151,492
3.152,487
3.153,488
3.154,487
3.155,489
3.156,493
3.157,500
3.158,507
3.159,518
3.160,527
3.161,533
3.162,529
3.163,523
3.164,516
3.165,507
3.166,498
3.167,492
3.168,487
3.169,483
3.170,481
3.171,481
3.172,484
3.173,492
3.174,500
3.175,512
3.176,523
3.177,531
3.178,531
3.179,522
3.180,515
3.181,511
3.182,508
3.183,502
3.184,495
3.185,493
3.186,492
3.187,488
3.188,485
3.189,486
3.190,491
3.191,502
3.192,516
3.193,529
3.194,535
3.195,532
3.196,524
3.197,517
3.198,510
3.199,503
3.200,499
3.201,499
3.202,499
3.203,495
3.204,491
3.205,491
3.206,494
3.207,504
3.208,513
3.209,524
3.210,534
3.211,543
3.212,547
3.213,543
3.214,536
3.215,524
3.216,513
3.217,504
3.218,497
3.219,492
3.220,487
3.221,483
3.222,485
3.223,491
3.224,501
3.225,511
3.226,520
3.227,525
3.228,525
3.229,519
3.230,512
3.231,503
3.232,491
3.233,483
3.234,476
3.235,475
3.236,474
3.237,475
3.238,477
3.239,482
3.240,489
3.241,497
3.242,510
3.243,521
3.244,528
3.245,528
3.246,523
3.247,517
3.248,505
3.249,494
3.250,485
3.251,480
3.252,479
3.253,479
3.254,478
3.255,479
3.256,481
3.257,486
3.258,493
3.259,502
3.260,512
3.261,518
3.262,515
3.263,512
3.264,508
3.265,499
3.266,490
3.267,483
3.268,478
3.269,473
3.270,468
3.271,468
3.272,473
3.273,478
3.274,486
3.275,496
3.276,507
3.277,516
3.278,525
3.279,524
3.280,520
3.281,514
3.282,508
3.283,504
3.284,499
3.285,490
3.286,480
3.287,471
3.288,468
3.289,470
3.290,479
3.291,489
3.292,502
3.293,515
3.294,524
3.295,524
3.296,513
3.297,505
3.298,501
3.299,499
3.300,493
3.301,486
3.302,481
3.303,478
3.304,474
3.305,475
3.306,480
3.307,488
3.308,500
3.309,511
3.310,514
3.311,516
3.312,512
3.313,506
3.314,504
3.315,502
3.316,503
3.317,507
3.318,513
3.319,517
3.320,517
3.321,518
3.322,526
3.323,536
3.324,552
3.325,570
3.326,590
3.327,607
3.328,620
3.329,626
3.330,631
3.331,633
3.332,632
3.333,629
3.334,629
3.335,631
3.336,629
3.337,620
3.338,611
3.339,605
3.340,603
3.341,601
3.342,601
3.343,600
3.344,595
3.345,586
3.346,572
3.347,557
3.348,540
3.349,519
3.350,497
3.351,480
3.352,464
3.353,448
3.354,435
3.355,429
3.356,426
3.357,428
3.358,429
3.359,434
3.360,439
3.361,440
3.362,433
3.363,421
3.364,413
3.365,406
3.366,400
3.367,393
3.368,387
3.369,383
3.370,382
3.371,386
3.372,391
3.373,396
3.374,406
3.375,419
3.376,435
3.377,449
3.378,457
3.379,458
3.380,457
3.381,457
3.382,460
3.383,456
3.384,452
3.385,451
3.386,452
3.387,449
3.388,448
3.389,449
3.390,458
3.391,468
3.392,483
3.393,499
3.394,510
3.395,513
3.396,509
3.397,507
3.398,504
3.399,503
3.400,504
3.401,501
3.402,497
3.403,489
3.404,481
3.405,475
3.406,473
3.407,480
3.408,494
3.409,511
3.410,529
3.411,546
3.412,559
3.413,567
3.414,564
3.415,551
3.416,538
3.417,526
3.418,518
3.419,513
3.420,507
3.421,500
3.422,497
3.423,503
3.424,512
3.425,520
3.426,534
3.427,550
3.428,560
3.429,564
3.430,568
3.431,568
3.432,562
3.433,551
3.434,538
3.435,528
3.436,518
3.437,507
3.438,499
3.439,495
3.440,499
3.441,508
3.442,522
3.443,540
3.444,557
3.445,566
3.446,570
3.447,574
3.448,571
3.449,563
3.450,558
3.451,549
3.452,533
3.453,519
3.454,505
3.455,495
3.456,491
3.457,499
3.458,509
3.459,527
3.460,550
3.461,568
3.462,572
3.463,575
3.464,575
3.465,571
3.466,564
3.467,558
3.468,551
3.469,544
3.470,534
3.471,524
3.472,517
3.473,517
3.474,524
3.475,533
3.476,551
3.477,577
3.478,596
3.479,604
3.480,602
3.481,592
3.482,583
3.483,575
3.484,568
3.485,556
3.486,548
3.487,540
3.488,531
3.489,523
3.490,524
3.491,530
3.492,548
3.493,573
3.494,595
3.495,608
3.496,612
3.497,614
3.498,614
3.499,611
3.500,608
3.501,600
3.502,590
3.503,579
3.504,564
3.505,550
3.506,542
3.507,542
3.508,549
3.509,567
3.510,590
3.511,611
3.512,624
3.513,632
3.514,633
3.515,628
3.516,619
3.517,608
3.518,598
3.519,586
3.520,571
3.521,557
3.522,545
3.523,542
3.524,547
3.525,559
3.526,583
3.527,607
3.528,619
3.529,621
3.530,623
3.531,622
3.532,618
3.533,608
3.534,595
3.535,582
3.536,570
3.537,551
3.538,531
3.539,518
3.540,518
3.541,524
3.542,539
3.543,560
3.544,581
3.545,595
3.546,604
3.547,607
3.548,599
3.549,586
3.550,572
3.551,554
3.552,540
3.553,529
3.554,509
3.555,491
3.556,480
3.557,481
3.558,488
3.559,506
3.560,528
3.561,546
3.562,557
3.563,564
3.564,564
3.565,553
3.566,540
3.567,528
3.568,515
3.569,501
3.570,483
3.571,464
3.572,450
3.573,448
3.574,454
3.575,465
3.576,487
3.577,510
3.578,525
3.579,530
3.580,533
3.581,531
3.582,526
3.583,520
3.584,509
3.585,494
3.586,479
3.587,465
3.588,452
3.589,441
3.590,443
3.591,450
3.592,465
3.593,489
3.594,505
3.595,511
3.596,510
3.597,508
3.598,504
3.599,501
3.600,494
3.601,481
3.602,466
3.603,453
3.604,439
3.605,430
3.606,422
3.607,423
3.608,431
3.609,450
3.610,471
3.611,488
3.612,502
3.613,508
3.614,509
3.615,503
3.616,492
3.617,484
3.618,472
3.619,462
3.620,452
3.621,443
3.622,435
3.623,435
3.624,437
3.625,445
3.626,463
3.627,484
3.628,498
3.629,505
3.630,511
3.631,513
3.632,509
3.633,496
3.634,482
3.635,472
3.636,462
3.637,450
3.638,439
3.639,434
3.640,440
3.641,448
3.642,461
3.643,480
3.644,499
3.645,512
3.646,519
3.647,519
3.648,509
3.649,502
3.650,497
3.651,489
3.652,480
3.653,468
3.654,455
3.655,449
3.656,451
3.657,460
3.658,470
3.659,483
3.660,500
3.661,515
3.662,521
3.663,523
3.664,520
3.665,515
3.666,508
3.667,496
3.668,483
3.669,473
3.670,465
3.671,458
3.672,454
3.673,458
3.674,469
3.675,475
3.676,488
3.677,507
3.678,521
3.679,527
3.680,529
3.681,526
3.682,516
3.683,507
3.684,496
3.685,486
3.686,477
3.687,465
3.688,455
3.689,444
3.690,446
3.691,458
3.692,477
3.693,503
3.694,522
3.695,529
3.696,530
3.697,530
3.698,522
3.699,518
3.700,513
3.701,502
3.702,491
3.703,482
3.704,468
3.705,455
3.706,450
3.707,453
3.708,462
3.709,480
3.710,502
3.711,520
3.712,532
3.713,538
3.714,539
3.715,538
3.716,536
3.717,529
3.718,521
3.719,508
3.720,495
3.721,480
3.722,463
3.723,455
3.724,459
3.725,470
3.726,490
3.727,512
3.728,527
3.729,535
3.730,539
3.731,536
3.732,531
3.733,519
3.734,508
3.735,498
3.736,488
3.737,473
3.738,459
3.739,452
3.740,454
3.741,463
3.742,481
3.743,505
3.744,523
3.745,532
3.746,538
3.747,544
3.748,543
3.749,540
3.750,529
3.751,513
3.752,499
3.753,490
3.754,478
3.755,465
3.756,457
3.757,463
3.758,472
3.759,489
3.760,513
3.761,536
3.762,547
3.763,553
3.764,556
3.765,554
3.766,547
3.767,532
3.768,521
3.769,513
3.770,501
3.771,487
3.772,475
3.773,471
3.774,472
3.775,479
3.776,502
3.777,529
3.778,548
3.779,557
3.780,560
3.781,558
3.782,551
3.783,540
3.784,526
3.785,509
3.786,496
3.787,483
3.788,470
3.789,462
3.790,462
3.791,466
3.792,478
3.793,498
3.794,516
3.795,527
3.796,533
3.797,532
3.798,529
3.799,525
3.800,521
3.801,512
3.802,499
3.803,485
3.804,468
3.805,452
3.806,447
3.807,454
3.808,464
3.809,478
3.810,490
3.811,504
3.812,514
3.813,520
3.814,524
3.815,521
3.816,515
3.817,508
3.818,499
3.819,488
3.820,477
3.821,466
3.822,456
3.823,452
3.824,457
3.825,470
3.826,492
3.827,513
3.828,527
3.829,529
3.830,531
3.831,529
3.832,522
3.833,513
3.834,509
3.835,503
3.836,492
3.837,479
3.838,469
3.839,467
3.840,470
3.841,477
3.842,493
3.843,505
3.844,514
3.845,516
3.846,515
3.847,515
3.848,511
3.849,505
3.850,496
3.851,490
3.852,486
3.853,483
3.854,479
3.855,478
3.856,481
3.857,487
3.858,496
3.859,508
3.860,518
3.861,524
3.862,522
3.863,521
3.864,519
3.865,513
3.866,508
3.867,502
3.868,494
3.869,489
3.870,482
3.871,475
3.872,470
3.873,471
3.874,478
3.875,490
3.876,508
3.877,519
3.878,527
3.879,529
3.880,527
3.881,526
3.882,518
3.883,514
3.884,514
3.885,519
3.886,523
3.887,524
3.888,527
3.889,534
3.890,544
3.891,559
3.892,581
3.893,606
3.894,627
3.895,641
3.896,647
3.897,649
3.898,649
3.899,651
3.900,654
3.901,654
3.902,654
3.903,649
3.904,634
3.905,620
3.906,605
3.907,595
3.908,584
3.909,580
3.910,580
3.911,577
3.912,571
3.913,569
3.914,560
3.915,543
3.916,524
3.917,504
3.918,487
3.919,473
3.920,455
3.921,436
3.922,422
3.923,416
3.924,416
3.925,419
3.926,424
3.927,430
3.928,433
3.929,431
3.930,427
3.931,419
3.932,411
3.933,401
3.934,393
3.935,390
3.936,387
3.937,378
3.938,373
3.939,378
3.940,386
3.941,389
3.942,398
3.943,415
3.944,435
3.945,449
3.946,457
3.947,464
3.948,466
3.949,465
3.950,463
3.951,459
3.952,455
3.953,452
3.954,448
3.955,445
3.956,442
3.957,444
3.958,451
3.959,466
3.960,485
3.961,505
3.962,512
3.963,513
3.964,514
3.965,515
3.966,513
3.967,509
3.968,504
3.969,496
3.970,486
3.971,479
3.972,474
3.973,478
3.974,487
3.975,496
3.976,513
3.977,530
3.978,540
3.979,543
3.980,545
3.981,542
3.982,538
3.983,533
3.984,526
3.985,523
3.986,518
3.987,505
3.988,500
3.989,499
3.990,505
3.991,516
3.992,529
3.993,543
3.994,556
3.995,563
3.996,566
3.997,564
3.998,561
3.999,556
4.000,552
4.001,547
4.002,540
4.003,534
4.004,524
4.005,512
4.006,504
4.007,506
4.008,515
4.009,531
4.010,551
4.011,566
4.012,567
4.013,564
4.014,560
4.015,555
4.016,549
4.017,543
4.018,534
4.019,526
4.020,518
4.021,513
4.022,509
4.023,511
4.024,516
4.025,528
4.026,543
4.027,556
4.028,563
4.029,562
4.030,563
4.031,557
4.032,550
4.033,545
4.034,537
4.035,532
4.036,529
4.037,527
4.038,526
4.039,529
4.040,532
4.041,536
4.042,547
4.043,561
4.044,574
4.045,577
4.046,575
4.047,572
4.048,568
4.049,562
4.050,554
4.051,546
4.052,547
4.053,548
4.054,548
4.055,551
4.056,554
4.057,560
4.058,569
4.059,579
4.060,590
4.061,597
4.062,594
4.063,589
4.064,585
4.065,581
4.066,574
4.067,569
4.068,564
4.069,560
4.070,559
4.071,565
4.072,576
4.073,590
4.074,601
4.075,608
4.076,611
4.077,611
4.078,609
4.079,604
4.080,603
4.081,604
4.082,601
4.083,594
4.084,590
4.085,589
4.086,591
4.087,593
4.088,596
4.089,596
4.090,593
4.091,594
4.092,594
4.093,594
4.094,596
4.095,594
4.096,591
4.097,591
4.098,586
4.099,581
4.100,576
4.101,575
4.102,574
4.103,569
4.104,564
4.105,560
4.106,559
4.107,560
4.108,565
4.109,574
4.110,581
4.111,586
4.112,580
4.113,575
4.114,569
4.115,556
4.116,540
4.117,529
4.118,523
4.119,520
4.120,517
4.121,514
4.122,514
4.123,518
4.124,522
4.125,528
4.126,536
4.127,543
4.128,544
4.129,538
4.130,536
4.131,529
4.132,517
4.133,506
4.134,500
4.135,499
4.136,498
4.137,494
4.138,491
4.139,492
4.140,496
4.141,504
4.142,515
4.143,526
4.144,535
4.145,532
4.146,521
4.147,508
4.148,496
4.149,487
4.150,480
4.151,476
4.152,474
4.153,470
4.154,467
4.155,467
4.156,470
4.157,475
4.158,481
4.159,491
4.160,499
4.161,504
4.162,501
4.163,498
4.164,494
4.165,491
4.166,487
4.167,480
4.168,475
4.169,469
4.170,465
4.171,467
4.172,472
4.173,478
4.174,484
4.175,489
4.176,491
4.177,495
4.178,498
4.179,489
4.180,479
4.181,470
4.182,463
4.183,458
4.184,458
4.185,459
4.186,462
4.187,463
4.188,469
4.189,477
4.190,484
4.191,494
4.192,504
4.193,510
4.194,515
4.195,512
4.196,501
4.197,489
4.198,478
4.199,467
4.200,456
4.201,453
4.202,455
4.203,459
4.204,462
4.205,473
4.206,481
4.207,486
4.208,491
4.209,492
4.210,493
4.211,494
4.212,487
4.213,482
4.214,480
4.215,478
4.216,474
4.217,470
4.218,469
4.219,470
4.220,473
4.221,479
4.222,489
4.223,500
4.224,511
4.225,522
4.226,527
4.227,523
4.228,514
4.229,504
4.230,498
4.231,492
4.232,484
4.233,479
4.234,475
4.235,474
4.236,473
4.237,475
4.238,483
4.239,494
4.240,500
4.241,503
4.242,507
4.243,508
4.244,508
4.245,503
4.246,495
4.247,490
4.248,484
4.249,478
4.250,473
4.251,473
4.252,475
4.253,479
4.254,485
4.255,493
4.256,498
4.257,501
4.258,508
4.259,517
4.260,520
4.261,517
4.262,508
4.263,502
4.264,495
4.265,488
4.266,484
4.267,482
4.268,479
4.269,476
4.270,471
4.271,473
4.272,479
4.273,486
4.274,497
4.275,507
4.276,513
4.277,517
4.278,517
4.279,509
4.280,504
4.281,496
4.282,489
4.283,485
4.284,481
4.285,480
4.286,481
4.287,486
4.288,496
4.289,506
4.290,514
4.291,519
4.292,523
4.293,524
4.294,524
4.295,516
4.296,512
4.297,513
4.298,509
4.299,497
4.300,483
4.301,477
4.302,479
4.303,482
4.304,486
4.305,492
4.306,499
4.307,507
4.308,514
4.309,521
4.310,528
4.311,530
4.312,520
4.313,507
4.314,500
4.315,495
4.316,489
4.317,484
4.318,482
4.319,481
4.320,483
4.321,490
4.322,502
4.323,513
4.324,526
4.325,536
4.326,538
4.327,539
4.328,536
4.329,531
4.330,530
4.331,522
4.332,508
4.333,496
4.334,488
4.335,484
4.336,482
4.337,479
4.338,483
4.339,492
4.340,502
4.341,509
4.342,518
4.343,523
4.344,526
4.345,524
4.346,518
4.347,511
4.348,504
4.349,497
4.350,493
4.351,491
4.352,489
4.353,490
4.354,494
4.355,503
4.356,516
4.357,525
4.358,535
4.359,542
4.360,547
4.361,545
4.362,536
4.363,526
4.364,519
4.365,512
4.366,506
4.367,501
4.368,502
4.369,504
4.370,506
4.371,515
4.372,524
4.373,529
4.374,534
4.375,539
4.376,537
4.377,534
4.378,525
4.379,515
4.380,510
4.381,503
4.382,494
4.383,488
4.384,485
4.385,482
4.386,479
4.387,481
4.388,489
4.389,500
4.390,508
4.391,514
4.392,520
4.393,523
4.394,519
4.395,508
4.396,493
4.397,483
4.398,479
4.399,476
4.400,470
4.401,469
4.402,469
4.403,471
4.404,479
4.405,486
4.406,494
4.407,504
4.408,511
4.409,516
4.410,520
4.411,519
4.412,511
4.413,501
4.414,495
4.415,491
4.416,486
4.417,483
4.418,483
4.419,482
4.420,478
4.421,481
4.422,494
4.423,503
4.424,507
4.425,512
4.426,516
4.427,520
4.428,519
4.429,511
4.430,506
4.431,498
4.432,491
4.433,487
4.434,488
4.435,488
4.436,488
4.437,490
4.438,494
4.439,501
4.440,508
4.441,515
4.442,522
4.443,525
4.444,525
4.445,519
4.446,507
4.447,498
4.448,491
4.449,486
4.450,480
4.451,478
4.452,480
4.453,482
4.454,490
4.455,500
4.456,507
4.457,511
4.458,517
4.459,518
4.460,514
4.461,508
4.462,497
4.463,487
4.464,481
4.465,475
4.466,471
4.467,468
4.468,469
4.469,472
4.470,476
4.471,486
4.472,503
4.473,519
4.474,536
4.475,554
4.476,567
4.477,573
4.478,572
4.479,570
4.480,573
4.481,575
4.482,578
4.483,579
4.484,581
4.485,589
4.486,597
4.487,609
4.488,630
4.489,648
4.490,663
4.491,678
4.492,688
4.493,689
4.494,680
4.495,660
4.496,635
4.497,616
4.498,599
4.499,581
4.500,565
4.501,551
4.502,540
4.503,531
4.504,525
4.505,522
4.506,517
4.507,510
4.508,503
4.509,497
4.510,487
4.511,472
4.512,454
4.513,438
4.514,426
4.515,415
4.516,407
4.517,399
4.518,393
4.519,391
4.520,390
4.521,393
4.522,400
4.523,408
4.524,417
4.525,426
4.526,431
4.527,433
4.528,429
4.529,414
4.530,406
4.531,403
4.532,400
4.533,399
4.534,402
4.535,406
4.536,414
4.537,424
4.538,439
4.539,455
4.540,468
4.541,479
4.542,487
4.543,489
4.544,487
4.545,479
4.546,469
4.547,462
4.548,457
4.549,454
4.550,452
4.551,453
4.552,455
4.553,461
4.554,470
4.555,482
4.556,496
4.557,505
4.558,518
4.559,529
4.560,534
4.561,530
4.562,520
4.563,511
4.564,506
4.565,501
4.566,495
4.567,492
4.568,491
4.569,494
4.570,499
4.571,510
4.572,523
4.573,535
4.574,545
4.575,551
4.576,549
4.577,550
4.578,546
4.579,536
4.580,531
4.581,525
4.582,516
4.583,509
4.584,506
4.585,507
4.586,509
4.587,512
4.588,522
4.589,532
4.590,540
4.591,547
4.592,555
4.593,556
4.594,552
4.595,544
4.596,540
4.597,537
4.598,532
4.599,524
4.600,518
4.601,518
4.602,520
4.603,520
4.604,529
4.605,542
4.606,553
4.607,560
4.608,565
4.609,566
4.610,562
4.611,556
4.612,548
4.613,542
4.614,537
4.615,532
4.616,524
4.617,517
4.618,515
4.619,518
4.620,525
4.621,537
4.622,547
4.623,556
4.624,562
4.625,568
4.626,568
4.627,564
4.628,554
4.629,540
4.630,534
4.631,533
4.632,530
4.633,528
4.634,528
4.635,529
4.636,533
4.637,539
4.638,551
4.639,568
4.640,582
4.641,589
4.642,588
4.643,577
4.644,570
4.645,560
4.646,553
4.647,550
4.648,546
4.649,542
4.650,540
4.651,540
4.652,540
4.653,542
4.654,549
4.655,561
4.656,572
4.657,580
4.658,589
4.659,598
4.660,603
4.661,603
4.662,596
4.663,590
4.664,585
4.665,580
4.666,574
4.667,574
4.668,575
4.669,579
4.670,584
4.671,594
4.672,598
4.673,600
4.674,606
4.675,612
4.676,615
4.677,616
4.678,612
4.679,601
4.680,592
4.681,585
4.682,579
4.683,572
4.684,571
4.685,572
4.686,569
4.687,568
4.688,575
4.689,583
4.690,589
4.691,591
4.692,591
4.693,587
4.694,586
4.695,583
4.696,578
4.697,574
4.698,568
4.699,557
4.700,546
4.701,538
4.702,531
4.703,524
4.704,525
4.705,534
4.706,543
4.707,549
4.708,554
4.709,557
4.710,558
4.711,555
4.712,546
4.713,539
4.714,532
4.715,525
4.716,519
4.717,513
4.718,504
4.719,501
4.720,498
4.721,505
4.722,516
4.723,523
4.724,529
4.725,536
4.726,537
4.727,535
4.728,528
4.729,517
4.730,508
4.731,495
4.732,485
4.733,477
4.734,472
4.735,471
4.736,473
4.737,476
4.738,485
4.739,495
4.740,500
4.741,505
4.742,511
4.743,512
4.744,508
4.745,498
4.746,488
4.747,480
4.748,469
4.749,462
4.750,455
4.751,453
4.752,455
4.753,459
4.754,469
4.755,479
4.756,487
4.757,495
4.758,502
4.759,507
4.760,505
4.761,498
4.762,483
4.763,469
4.764,457
4.765,450
4.766,444
4.767,442
4.768,447
4.769,454
4.770,458
4.771,467
4.772,480
4.773,489
4.774,496
4.775,502
4.776,504
4.777,505
4.778,501
4.779,494
4.780,487
4.781,481
4.782,470
4.783,459
4.784,452
4.785,449
4.786,450
4.787,461
4.788,479
4.789,492
4.790,498
4.791,504
4.792,506
4.793,504
4.794,499
4.795,490
4.796,480
4.797,471
4.798,463
4.799,461
4.800,460
4.801,459
4.802,462
4.803,468
4.804,480
4.805,492
4.806,501
4.807,511
4.808,521
4.809,526
4.810,521
4.811,511
4.812,496
4.813,486
4.814,476
4.815,467
4.816,462
4.817,460
4.818,461
4.819,463
4.820,467
4.821,477
4.822,488
4.823,497
4.824,506
4.825,513
4.826,511
4.827,506
4.828,499
4.829,488
4.830,482
4.831,479
4.832,473
4.833,467
4.834,466
4.835,468
4.836,474
4.837,484
4.838,499
4.839,512
4.840,519
4.841,524
4.842,523
4.843,520
4.844,519
4.845,509
4.846,494
4.847,482
4.848,474
4.849,468
4.850,466
4.851,468
4.852,471
4.853,474
4.854,484
4.855,497
4.856,509
4.857,520
4.858,530
4.859,531
4.860,526
4.861,516
4.862,503
4.863,494
4.864,491
4.865,487
4.866,482
4.867,477
4.868,476
4.869,477
4.870,478
4.871,484
4.872,499
4.873,514
4.874,520
4.875,526
4.876,529
4.877,527
4.878,517
4.879,503
4.880,497
4.881,491
4.882,485
4.883,479
4.884,475
4.885,475
4.886,477
4.887,480
4.888,489
4.889,497
4.890,505
4.891,515
4.892,524
4.893,527
4.894,524
4.895,513
4.896,504
4.897,497
4.898,488
4.899,483
4.900,479
4.901,478
4.902,482
4.903,487
4.904,494
4.905,504
4.906,513
4.907,518
4.908,525
4.909,529
4.910,528
4.911,524
4.912,516
4.913,508
4.914,496
4.915,486
4.916,477
4.917,472
4.918,473
4.919,476
4.920,479
4.921,487
4.922,497
4.923,506
4.924,514
4.925,522
4.926,526
4.927,527
4.928,523
4.929,512
4.930,503
4.931,496
4.932,491
4.933,484
4.934,480
4.935,480
4.936,484
4.937,489
4.938,499
4.939,511
4.940,521
4.941,531
4.942,535
4.943,535
4.944,533
4.945,522
4.946,511
4.947,503
4.948,496
4.949,488
4.950,485
4.951,486
4.952,490
4.953,493
4.954,498
4.955,509
4.956,521
4.957,531
4.958,538
4.959,540
4.960,536
4.961,529
4.962,522
4.963,514
4.964,505
4.965,501
4.966,492
4.967,486
4.968,484
4.969,486
4.970,492
4.971,502
4.972,516
4.973,527
4.974,534
4.975,540
4.976,539
4.977,537
4.978,530
4.979,516
4.980,507
4.981,502
4.982,497
4.983,492
4.984,490
4.985,490
4.986,489
4.987,488
4.988,494
4.989,503
4.990,511
4.991,516
4.992,521
4.993,524
4.994,521
4.995,510
4.996,497
4.997,488
4.998,483
4.999,481
5.000,478
5.001,479
5.002,478
5.003,480
5.004,490
5.005,502
5.006,511
5.007,516
5.008,518
5.009,518
5.010,515
5.011,509
5.012,497
5.013,489
5.014,484
5.015,480
5.016,476
5.017,472
5.018,468
5.019,466
5.020,469
5.021,480
5.022,492
5.023,504
5.024,512
5.025,522
5.026,526
5.027,525
5.028,517
5.029,504
5.030,495
5.031,486
5.032,478
5.033,472
5.034,472
5.035,476
5.036,482
5.037,491
5.038,507
5.039,521
5.040,530
5.041,537
5.042,539
5.043,535
5.044,529
5.045,518
5.046,504
5.047,487
5.048,474
5.049,467
5.050,469
5.051,473
5.052,476
5.053,479
5.054,487
5.055,499
5.056,510
5.057,519
5.058,525
5.059,525
5.060,518
5.061,505
5.062,489
5.063,480
5.064,474
5.065,472
5.066,470
5.067,470
5.068,472
5.069,475
5.070,480
5.071,492
5.072,509
5.073,520
5.074,532
5.075,544
5.076,548
5.077,551
5.078,551
5.079,548
5.080,543
5.081,538
5.082,535
5.083,540
5.084,553
5.085,568
5.086,582
5.087,600
5.088,628
5.089,653
5.090,669
5.091,680
5.092,684
5.093,682
5.094,676
5.095,658
5.096,636
5.097,619
5.098,604
5.099,586
5.100,569
5.101,561
5.102,556
5.103,550
5.104,544
5.105,543
5.106,540
5.107,534
5.108,526
5.109,516
5.110,503
5.111,486
5.112,463
5.113,444
5.114,431
5.115,417
5.116,406
5.117,398
5.118,395
5.119,394
5.120,397
5.121,411
5.122,424
5.123,428
5.124,433
5.125,437
5.126,436
5.127,432
5.128,421
5.129,411
5.130,406
5.131,401
5.132,397
5.133,394
5.134,396
5.135,402
5.136,408
5.137,418
5.138,435
5.139,452
5.140,463
5.141,474
5.142,484
5.143,487
5.144,483
5.145,471
5.146,460
5.147,452
5.148,450
5.149,448
5.150,448
5.151,454
5.152,459
5.153,462
5.154,472
5.155,484
5.156,494
5.157,505
5.158,518
5.159,526
5.160,526
5.161,518
5.162,506
5.163,495
5.164,488
5.165,480
5.166,472
5.167,472
5.168,480
5.169,490
5.170,499
5.171,515
5.172,531
5.173,539
5.174,544
5.175,549
5.176,547
5.177,540
5.178,534
5.179,526
5.180,518
5.181,508
5.182,499
5.183,494
5.184,497
5.185,502
5.186,507
5.187,516
5.188,529
5.189,543
5.190,554
5.191,558
5.192,560
5.193,557
5.194,550
5.195,535
5.196,518
5.197,507
5.198,496
5.199,492
5.200,493
5.201,494
5.202,498
5.203,504
5.204,520
5.205,540
5.206,556
5.207,564
5.208,571
5.209,569
5.210,562
5.211,551
5.212,535
5.213,524
5.214,517
5.215,510
5.216,503
5.217,503
5.218,505
5.219,512
5.220,519
5.221,534
5.222,554
5.223,568
5.224,577
5.225,581
5.226,577
5.227,571
5.228,558
5.229,540
5.230,529
5.231,520
5.232,515
5.233,512
5.234,514
5.235,521
5.236,530
5.237,540
5.238,556
5.239,568
5.240,577
5.241,587
5.242,589
5.243,584
5.244,577
5.245,564
5.246,551
5.247,543
5.248,537
5.249,532
5.250,528
5.251,531
5.252,538
5.253,547
5.254,561
5.255,583
5.256,600
5.257,611
5.258,619
5.259,619
5.260,613
5.261,604
5.262,590
5.263,575
5.264,563
5.265,556
5.266,552
5.267,553
5.268,559
5.269,567
5.270,575
5.271,590
5.272,606
5.273,616
5.274,623
5.275,628
5.276,626
5.277,619
5.278,605
5.279,587
5.280,574
5.281,565
5.282,558
5.283,555
5.284,558
5.285,563
5.286,572
5.287,588
5.288,604
5.289,614
5.290,615
5.291,613
5.292,608
5.293,596
5.294,582
5.295,566
5.296,551
5.297,542
5.298,534
5.299,528
5.300,523
5.301,525
5.302,530
5.303,534
5.304,547
5.305,564
5.306,575
5.307,580
5.308,584
5.309,580
5.310,570
5.311,553
5.312,534
5.313,518
5.314,511
5.315,504
5.316,498
5.317,496
5.318,499
5.319,499
5.320,503
5.321,516
5.322,527
5.323,532
5.324,537
5.325,540
5.326,534
5.327,522
5.328,509
5.329,496
5.330,487
5.331,477
5.332,467
5.333,457
5.334,458
5.335,462
5.336,467
5.337,479
5.338,496
5.339,509
5.340,518
5.341,525
5.342,524
5.343,513
5.344,499
5.345,484
5.346,472
5.347,463
5.348,453
5.349,444
5.350,440
5.351,444
5.352,449
5.353,459
5.354,476
5.355,495
5.356,504
5.357,509
5.358,513
5.359,510
5.360,499
5.361,483
5.362,465
5.363,452
5.364,446
5.365,440
5.366,437
5.367,437
5.368,441
5.369,447
5.370,455
5.371,471
5.372,487
5.373,496
5.374,503
5.375,508
5.376,500
5.377,487
5.378,473
5.379,460
5.380,451
5.381,442
5.382,438
5.383,435
5.384,440
5.385,445
5.386,454
5.387,467
5.388,486
5.389,501
5.390,509
5.391,515
5.392,517
5.393,507
5.394,494
5.395,479
5.396,464
5.397,453
5.398,447
5.399,443
5.400,444
5.401,452
5.402,462
5.403,473
5.404,488
5.405,504
5.406,515
5.407,523
5.408,528
5.409,519
5.410,506
5.411,492
5.412,475
5.413,466
5.414,460
5.415,455
5.416,451
5.417,452
5.418,456
5.419,463
5.420,472
5.421,489
5.422,504
5.423,510
5.424,515
5.425,522
5.426,523
5.427,517
5.428,502
5.429,487
5.430,480
5.431,476
5.432,470
5.433,465
5.434,467
5.435,472
5.436,477
5.437,487
5.438,499
5.439,510
5.440,517
5.441,524
5.442,531
5.443,533
5.444,526
5.445,508
5.446,488
5.447,475
5.448,471
5.449,468
5.450,468
5.451,472
5.452,479
5.453,482
5.454,489
5.455,498
5.456,508
5.457,518
5.458,527
5.459,528
5.460,524
5.461,517
5.462,504
5.463,494
5.464,485
5.465,478
5.466,473
5.467,470
5.468,472
5.469,475
5.470,477
5.471,488
5.472,503
5.473,512
5.474,520
5.475,523
5.476,521
5.477,519
5.478,511
5.479,499
5.480,491
5.481,483
5.482,478
5.483,472
5.484,475
5.485,480
5.486,483
5.487,491
5.488,503
5.489,517
5.490,527
5.491,536
5.492,537
5.493,533
5.494,529
5.495,517
5.496,503
5.497,493
5.498,487
5.499,482
5.500,477
5.501,477
5.502,480
5.503,485
5.504,494
5.505,509
5.506,520
5.507,531
5.508,539
5.509,541
5.510,537
5.511,528
5.512,516
5.513,505
5.514,494
5.515,486
5.516,479
5.517,475
5.518,476
5.519,481
5.520,487
5.521,498
5.522,508
5.523,516
5.524,524
5.525,529
5.526,531
5.527,530
5.528,524
5.529,511
5.530,501
5.531,492
5.532,484
5.533,480
5.534,479
5.535,481
5.536,482
5.537,490
5.538,506
5.539,521
5.540,531
5.541,537
5.542,540
5.543,540
5.544,540
5.545,532
5.546,520
5.547,509
5.548,498
5.549,488
5.550,487
5.551,492
5.552,499
5.553,508
5.554,520
5.555,530
5.556,533
5.557,536
5.558,540
5.559,537
5.560,533
5.561,531
5.562,525
5.563,518
5.564,506
5.565,494
5.566,488
5.567,486
5.568,488
5.569,492
5.570,494
5.571,502
5.572,512
5.573,519
5.574,524
5.575,527
5.576,521
5.577,515
5.578,504
5.579,490
5.580,481
5.581,474
5.582,471
5.583,467
5.584,467
5.585,469
5.586,472
5.587,480
5.588,495
5.589,508
5.590,516
5.591,525
5.592,530
5.593,529
5.594,527
5.595,515
5.596,500
5.597,487
5.598,477
5.599,470
5.600,464
5.601,465
5.602,470
5.603,476
5.604,487
5.605,499
5.606,508
5.607,516
5.608,522
5.609,523
5.610,518
5.611,509
5.612,498
5.613,494
5.614,492
5.615,487
5.616,482
5.617,478
5.618,475
5.619,476
5.620,482
5.621,495
5.622,508
5.623,515
5.624,521
5.625,527
5.626,528
5.627,527
5.628,519
5.629,505
5.630,493
5.631,486
5.632,483
5.633,481
5.634,483
5.635,487
5.636,491
5.637,495
5.638,503
5.639,509
5.640,511
5.641,517
5.642,521
5.643,518
5.644,514
5.645,505
5.646,498
5.647,492
5.648,484
5.649,473
5.650,464
5.651,466
5.652,472
5.653,477
5.654,490
5.655,508
5.656,520
5.657,526
5.658,531
5.659,533
5.660,533
5.661,534
5.662,529
5.663,527
5.664,532
5.665,539
5.666,543
5.667,548
5.668,558
5.669,573
5.670,585
5.671,602
5.672,617
5.673,631
5.674,646
5.675,664
5.676,681
5.677,690
5.678,685
5.679,669
5.680,651
5.681,631
5.682,612
5.683,598
5.684,585
5.685,572
5.686,556
5.687,549
5.688,550
5.689,550
5.690,543
5.691,536
5.692,527
5.693,516
5.694,503
5.695,485
5.696,467
5.697,450
5.698,437
5.699,423
5.700,413
5.701,407
5.702,404
5.703,402
5.704,406
5.705,415
5.706,421
5.707,423
5.708,426
5.709,425
5.710,421
5.711,416
5.712,405
5.713,397
5.714,391
5.715,387
5.716,386
5.717,389
5.718,396
5.719,404
5.720,412
5.721,426
5.722,441
5.723,452
5.724,466
5.725,478
5.726,482
5.727,483
5.728,478
5.729,467
5.730,462
5.731,459
5.732,455
5.733,453
5.734,453
5.735,454
5.736,457
5.737,466
5.738,478
5.739,492
5.740,503
5.741,511
5.742,516
5.743,513
5.744,510
5.745,504
5.746,500
5.747,495
5.748,493
5.749,489
5.750,487
5.751,489
5.752,495
5.753,500
5.754,510
5.755,523
5.756,533
5.757,541
5.758,550
5.759,550
5.760,550
5.761,548
5.762,536
5.763,525
5.764,516
5.765,509
5.766,503
5.767,500
5.768,503
5.769,509
5.770,519
5.771,532
5.772,547
5.773,558
5.774,566
5.775,568
5.776,563
5.777,553
5.778,541
5.779,529
5.780,520
5.781,514
5.782,512
5.783,509
5.784,507
5.785,510
5.786,513
5.787,521
5.788,534
5.789,545
5.790,550
5.791,556
5.792,556
5.793,553
5.794,548
5.795,539
5.796,534
5.797,531
5.798,526
5.799,519
5.800,515
5.801,514
5.802,516
5.803,520
5.804,530
5.805,544
5.806,553
5.807,559
5.808,562
5.809,559
5.810,557
5.811,554
5.812,546
5.813,540
5.814,536
5.815,532
5.816,528
5.817,528
5.818,531
5.819,536
5.820,539
5.821,548
5.822,560
5.823,569
5.824,577
5.825,584
5.826,586
5.827,583
5.828,576
5.829,567
5.830,559
5.831,550
5.832,542
5.833,535
5.834,534
5.835,537
5.836,542
5.837,551
5.838,567
5.839,579
5.840,587
5.841,593
5.842,596
5.843,595
5.844,593
5.845,583
5.846,573
5.847,563
5.848,559
5.849,558
5.850,557
5.851,558
5.852,562
5.853,568
5.854,580
5.855,593
5.856,603
5.857,610
5.858,618
5.859,621
5.860,617
5.861,610
5.862,600
5.863,592
5.864,585
5.865,579
5.866,572
5.867,566
5.868,563
5.869,566
5.870,569
5.871,581
5.872,593
5.873,598
5.874,604
5.875,608
5.876,604
5.877,594
5.878,581
5.879,567
5.880,559
5.881,552
5.882,548
5.883,544
5.884,542
5.885,542
5.886,541
5.887,544
5.888,553
5.889,562
5.890,568
5.891,575
5.892,579
5.893,578
5.894,572
5.895,560
5.896,544
5.897,532
5.898,522
5.899,512
5.900,509
5.901,510
5.902,512
5.903,513
5.904,521
5.905,533
5.906,539
5.907,544
5.908,550
5.909,545
5.910,535
5.911,527
5.912,514
5.913,506
5.914,499
5.915,495
5.916,487
5.917,481
5.918,477
5.919,476
5.920,478
5.921,486
5.922,496
5.923,506
5.924,514
5.925,520
5.926,519
5.927,512
5.928,501
5.929,488
5.930,481
5.931,472
5.932,464
5.933,459
5.934,458
5.935,460
5.936,462
5.937,465
5.938,474
5.939,483
5.940,491
5.941,504
5.942,511
5.943,513
5.944,509
5.945,496
5.946,484
5.947,474
5.948,463
5.949,454
5.950,452
5.951,454
5.952,456
5.953,455
5.954,462
5.955,475
5.956,483
5.957,487
5.958,490
5.959,489
5.960,487
5.961,481
5.962,471
5.963,466
5.964,463
5.965,460
5.966,453
5.967,451
5.968,451
5.969,455
5.970,460
5.971,470
5.972,485
5.973,495
5.974,502
5.975,506
5.976,508
5.977,505
5.978,493
5.979,480
5.980,475
5.981,468
5.982,460
5.983,454
5.984,453
5.985,453
5.986,454
5.987,461
5.988,475
5.989,489
5.990,498
5.991,504
5.992,505
5.993,500
5.994,492
5.995,481
5.996,472
5.997,465
5.998,460
5.999,457
6.000,455
6.001,456
6.002,460
6.003,469
6.004,483
6.005,496
6.006,501
6.007,506
6.008,514
6.009,520
6.010,522
6.011,519
6.012,509
6.013,494
6.014,480
6.015,470
6.016,465
6.017,466
6.018,468
6.019,470
6.020,472
6.021,483
6.022,493
6.023,499
6.024,507
6.025,515
6.026,513
6.027,507
6.028,496
6.029,486
6.030,480
6.031,475
6.032,468
6.033,462
6.034,464
6.035,471
6.036,476
6.037,485
6.038,497
6.039,507
6.040,513
6.041,521
6.042,524
6.043,519
6.044,510
6.045,496
6.046,484
6.047,478
6.048,472
6.049,467
6.050,466
6.051,467
6.052,470
6.053,473
6.054,484
6.055,497
6.056,508
6.057,516
6.058,521
6.059,522
6.060,519
6.061,511
6.062,496
6.063,487
6.064,481
6.065,478
6.066,474
6.067,471
6.068,472
6.069,476
6.070,482
6.071,493
6.072,504
6.073,512
6.074,518
6.075,519
6.076,516
6.077,515
6.078,507
6.079,497
6.080,491
6.081,484
6.082,478
6.083,472
6.084,469
6.085,472
6.086,479
6.087,491
6.088,504
6.089,511
6.090,517
6.091,523
6.092,524
6.093,523
6.094,520
6.095,510
6.096,498
6.097,489
6.098,486
6.099,481
6.100,479
6.101,483
6.102,489
6.103,492
6.104,499
6.105,508
6.106,515
6.107,521
6.108,529
6.109,529
6.110,526
6.111,516
6.112,502
6.113,492
6.114,483
6.115,480
6.116,479
6.117,479
6.118,480
6.119,482
6.120,487
6.121,499
6.122,512
6.123,517
6.124,522
6.125,529
6.126,527
6.127,525
6.128,516
6.129,505
6.130,497
6.131,487
6.132,477
6.133,473
6.134,480
6.135,487
6.136,492
6.137,497
6.138,505
6.139,513
6.140,517
6.141,522
6.142,529
6.143,533
6.144,532
6.145,524
6.146,515
6.147,510
6.148,504
6.149,498
6.150,495
6.151,495
6.152,497
6.153,502
6.154,514
6.155,525
6.156,533
6.157,542
6.158,545
6.159,541
6.160,537
6.161,531
6.162,521
6.163,515
6.164,507
6.165,498
6.166,492
6.167,488
6.168,488
6.169,489
6.170,496
6.171,508
6.172,520
6.173,527
6.174,533
6.175,533
6.176,527
6.177,519
6.178,507
6.179,493
6.180,483
6.181,474
6.182,471
6.183,468
6.184,467
6.185,471
6.186,475
6.187,483
6.188,498
6.189,510
6.190,517
6.191,523
6.192,523
6.193,519
6.194,511
6.195,499
6.196,492
6.197,487
6.198,481
6.199,476
6.200,473
6.201,473
6.202,475
6.203,479
6.204,489
6.205,501
6.206,510
6.207,517
6.208,520
6.209,519
6.210,516
6.211,507
6.212,494
6.213,484
6.214,480
6.215,475
6.216,470
6.217,471
6.218,475
6.219,478
6.220,482
6.221,495
6.222,510
6.223,518
6.224,525
6.225,529
6.226,525
6.227,519
6.228,511
6.229,499
6.230,491
6.231,486
6.232,482
6.233,480
6.234,482
6.235,484
6.236,487
6.237,494
6.238,508
6.239,518
6.240,525
6.241,531
6.242,533
6.243,526
6.244,518
6.245,504
6.246,494
6.247,492
6.248,489
6.249,486
6.250,483
6.251,482
6.252,482
6.253,481
6.254,489
6.255,504
6.256,514
6.257,521
6.258,528
6.259,527
6.260,519
6.261,508
6.262,496
6.263,490
6.264,487
6.265,489
6.266,495
6.267,508
6.268,525
6.269,539
6.270,555
6.271,578
6.272,598
6.273,612
6.274,627
6.275,636
6.276,634
6.277,630
6.278,624
6.279,618
6.280,617
6.281,618
6.282,620
6.283,620
6.284,623
6.285,627
6.286,627
6.287,629
6.288,633
6.289,629
6.290,621
6.291,612
6.292,593
6.293,569
6.294,544
6.295,512
6.296,487
6.297,471
6.298,459
6.299,444
6.300,432
6.301,428
6.302,427
6.303,428
6.304,440
6.305,456
6.306,465
6.307,463
6.308,462
6.309,449
6.310,434
6.311,413
6.312,390
6.313,373
6.314,367
6.315,366
6.316,365
6.317,365
6.318,370
6.319,378
6.320,393
6.321,419
6.322,440
6.323,446
6.324,455
6.325,462
6.326,460
6.327,456
6.328,447
6.329,436
6.330,428
6.331,423
6.332,417
6.333,416
6.334,425
6.335,435
6.336,448
6.337,465
6.338,487
6.339,502
6.340,511
6.341,520
6.342,523
6.343,518
6.344,508
6.345,490
6.346,477
6.347,470
6.348,463
6.349,459
6.350,461
6.351,473
6.352,489
6.353,502
6.354,519
6.355,536
6.356,547
6.357,557
6.358,564
6.359,561
6.360,547
6.361,529
6.362,508
6.363,500
6.364,498
6.365,496
6.366,493
6.367,493
6.368,502
6.369,507
6.370,512
6.371,526
6.372,542
6.373,551
6.374,561
6.375,563
6.376,556
6.377,546
6.378,528
6.379,511
6.380,505
6.381,502
6.382,499
6.383,498
6.384,501
6.385,507
6.386,514
6.387,528
6.388,546
6.389,562
6.390,573
6.391,580
6.392,578
6.393,568
6.394,556
6.395,536
6.396,517
6.397,506
6.398,502
6.399,501
6.400,503
6.401,508
6.402,518
6.403,528
6.404,540
6.405,555
6.406,562
6.407,563
6.408,558
6.409,544
6.410,529
6.411,518
6.412,508
6.413,505
6.414,505
6.415,507
6.416,508
6.417,513
6.418,520
6.419,525
6.420,531
6.421,547
6.422,564
6.423,575
6.424,584
6.425,583
6.426,574
6.427,564
6.428,547
6.429,530
6.430,523
6.431,521
6.432,523
6.433,526
6.434,531
6.435,537
6.436,544
6.437,559
6.438,579
6.439,593
6.440,597
6.441,602
6.442,603
6.443,596
6.444,579
6.445,557
6.446,539
6.447,531
6.448,529
6.449,529
6.450,533
6.451,545
6.452,553
6.453,564
6.454,585
6.455,609
6.456,627
6.457,634
6.458,636
6.459,626
6.460,613
6.461,599
6.462,585
6.463,578
6.464,572
6.465,567
6.466,564
6.467,566
6.468,570
6.469,576
6.470,590
6.471,607
6.472,615
6.473,617
6.474,619
6.475,618
6.476,610
6.477,596
6.478,580
6.479,567
6.480,557
6.481,552
6.482,548
6.483,544
6.484,546
6.485,552
6.486,560
6.487,574
6.488,588
6.489,598
6.490,602
6.491,608
6.492,604
6.493,587
6.494,568
6.495,547
6.496,529
6.497,519
6.498,512
6.499,503
6.500,500
6.501,504
6.502,512
6.503,520
6.504,539
6.505,559
6.506,569
6.507,572
6.508,572
6.509,561
6.510,548
6.511,535
6.512,517
6.513,504
6.514,493
6.515,485
6.516,478
6.517,474
6.518,475
6.519,480
6.520,490
6.521,513
6.522,532
6.523,538
6.524,544
6.525,547
6.526,536
6.527,523
6.528,507
6.529,484
6.530,471
6.531,463
6.532,459
6.533,456
6.534,458
6.535,463
6.536,471
6.537,486
6.538,508
6.539,521
6.540,523
6.541,526
6.542,521
6.543,506
6.544,488
6.545,472
6.546,463
6.547,455
6.548,444
6.549,439
6.550,440
6.551,445
6.552,459
6.553,474
6.554,492
6.555,510
6.556,520
6.557,526
6.558,531
6.559,520
6.560,502
6.561,479
6.562,456
6.563,440
6.564,429
6.565,427
6.566,429
6.567,436
6.568,446
6.569,451
6.570,462
6.571,486
6.572,508
6.573,518
6.574,526
6.575,521
6.576,508
6.577,492
6.578,473
6.579,457
6.580,449
6.581,444
6.582,440
6.583,439
6.584,445
6.585,450
6.586,462
6.587,478
6.588,495
6.589,505
6.590,512
6.591,516
6.592,515
6.593,505
6.594,489
6.595,472
6.596,460
6.597,453
6.598,449
6.599,444
6.600,444
6.601,451
6.602,460
6.603,470
6.604,487
6.605,504
6.606,514
6.607,517
6.608,524
6.609,524
6.610,517
6.611,503
6.612,487
6.613,475
6.614,465
6.615,452
6.616,446
6.617,449
6.618,459
6.619,468
6.620,481
6.621,501
6.622,519
6.623,529
6.624,538
6.625,539
6.626,527
6.627,513
6.628,498
6.629,485
6.630,477
6.631,470
6.632,461
6.633,458
6.634,463
6.635,469
6.636,480
6.637,495
6.638,510
6.639,519
6.640,524
6.641,527
6.642,524
6.643,522
6.644,514
6.645,496
6.646,478
6.647,472
6.648,469
6.649,464
6.650,460
6.651,465
6.652,476
6.653,486
6.654,505
6.655,523
6.656,537
6.657,544
6.658,542
6.659,527
6.660,512
6.661,496
6.662,482
6.663,474
6.664,471
6.665,469
6.666,467
6.667,470
6.668,476
6.669,483
6.670,494
6.671,510
6.672,526
6.673,533
6.674,538
6.675,535
6.676,524
6.677,513
6.678,499
6.679,484
6.680,476
6.681,476
6.682,476
6.683,476
6.684,477
6.685,480
6.686,484
6.687,497
6.688,515
6.689,530
6.690,538
6.691,543
6.692,536
6.693,522
6.694,508
6.695,492
6.696,478
6.697,473
6.698,471
6.699,468
6.700,471
6.701,476
6.702,478
6.703,487
6.704,501
6.705,516
6.706,526
6.707,532
6.708,536
6.709,529
6.710,520
6.711,506
6.712,489
6.713,479
6.714,469
6.715,462
6.716,458
6.717,462
6.718,471
6.719,480
6.720,495
6.721,515
6.722,529
6.723,534
6.724,540
6.725,540
6.726,530
6.727,519
6.728,504
6.729,484
6.730,470
6.731,466
6.732,465
6.733,463
6.734,467
6.735,474
6.736,483
6.737,499
6.738,520
6.739,537
6.740,544
6.741,550
6.742,547
6.743,536
6.744,523
6.745,506
6.746,493
6.747,482
6.748,474
6.749,468
6.750,467
6.751,472
6.752,480
6.753,487
6.754,506
6.755,522
6.756,530
6.757,534
6.758,539
6.759,535
6.760,524
6.761,508
6.762,492
6.763,480
6.764,473
6.765,471
6.766,469
6.767,474
6.768,481
6.769,493
6.770,506
6.771,524
6.772,540
6.773,547
6.774,553
6.775,554
6.776,545
6.777,531
6.778,512
6.779,497
6.780,489
6.781,483
6.782,479
6.783,476
6.784,482
6.785,490
6.786,500
6.787,515
6.788,536
6.789,550
6.790,554
6.791,556
6.792,549
6.793,538
6.794,523
6.795,500
6.796,486
6.797,482
6.798,478
6.799,476
6.800,476
6.801,483
6.802,494
6.803,506
6.804,522
6.805,543
6.806,553
6.807,559
6.808,564
6.809,559
6.810,551
6.811,537
6.812,515
6.813,497
6.814,488
6.815,485
6.816,484
6.817,489
6.818,498
6.819,511
6.820,528
6.821,546
6.822,560
6.823,566
6.824,570
6.825,569
6.826,556
6.827,538
6.828,515
6.829,496
6.830,487
6.831,480
6.832,475
6.833,475
6.834,483
6.835,494
6.836,504
6.837,512
6.838,524
6.839,531
6.840,534
6.841,533
6.842,525
6.843,510
6.844,494
6.845,479
6.846,466
6.847,461
6.848,464
6.849,466
6.850,466
6.851,469
6.852,477
6.853,488
6.854,507
6.855,523
6.856,529
6.857,537
6.858,540
6.859,531
6.860,523
6.861,510
6.862,494
6.863,483
6.864,476
6.865,472
6.866,470
6.867,473
6.868,478
6.869,483
6.870,492
6.871,510
6.872,524
6.873,529
6.874,536
6.875,538
6.876,526
6.877,513
6.878,496
6.879,483
6.880,476
6.881,475
6.882,477
6.883,477
6.884,476
6.885,479
6.886,483
6.887,497
6.888,517
6.889,530
6.890,536
6.891,542
6.892,539
6.893,527
6.894,513
6.895,497
6.896,489
6.897,486
6.898,484
6.899,482
6.900,481
6.901,484
6.902,491
6.903,503
6.904,518
6.905,531
6.906,534
6.907,530
6.908,525
6.909,514
6.910,504
6.911,492
6.912,479
6.913,476
6.914,476
6.915,475
6.916,469
6.917,464
6.918,463
6.919,469
6.920,483
6.921,507
6.922,531
6.923,551
6.924,568
6.925,578
6.926,578
6.927,577
6.928,572
6.929,567
6.930,571
6.931,575
6.932,578
6.933,584
6.934,596
6.935,611
6.936,629
6.937,651
6.938,676
6.939,695
6.940,704
6.941,708
6.942,698
6.943,677
6.944,653
6.945,624
6.946,599
6.947,581
6.948,563
6.949,546
6.950,532
6.951,520
6.952,511
6.953,504
6.954,508
6.955,512
6.956,511
6.957,510
6.958,502
6.959,483
6.960,460
6.961,437
6.962,415
6.963,400
6.964,390
6.965,382
6.966,377
6.967,376
6.968,376
6.969,377
6.970,385
6.971,405
6.972,423
6.973,430
6.974,434
6.975,434
6.976,425
6.977,414
6.978,402
6.979,394
6.980,392
6.981,394
6.982,397
6.983,400
6.984,407
6.985,417
6.986,431
6.987,450
6.988,471
6.989,484
6.990,493
6.991,501
6.992,500
6.993,494
6.994,488
6.995,478
6.996,474
6.997,472
6.998,470
6.999,468
7.000,465
7.001,467
7.002,475
7.003,486
7.004,508
7.005,531
7.006,540
7.007,543
7.008,546
7.009,539
7.010,533
7.011,523
7.012,507
7.013,496
7.014,486
7.015,484
7.016,486
7.017,492
7.018,497
7.019,505
7.020,518
7.021,537
7.022,552
7.023,560
7.024,564
7.025,561
7.026,550
7.027,540
7.028,527
7.029,509
7.030,499
7.031,493
7.032,491
7.033,491
7.034,497
7.035,505
7.036,513
7.037,527
7.038,546
7.039,560
7.040,567
7.041,572
7.042,567
7.043,558
7.044,548
7.045,534
7.046,523
7.047,518
7.048,515
7.049,511
7.050,508
7.051,511
7.052,516
7.053,525
7.054,541
7.055,558
7.056,564
7.057,571
7.058,576
7.059,568
7.060,558
7.061,543
7.062,526
7.063,515
7.064,508
7.065,503
7.066,501
7.067,503
7.068,513
7.069,524
7.070,535
7.071,553
7.072,568
7.073,575
7.074,581
7.075,583
7.076,576
7.077,567
7.078,555
7.079,543
7.080,534
7.081,526
7.082,522
7.083,518
7.084,522
7.085,529
7.086,538
7.087,553
7.088,570
7.089,583
7.090,589
7.091,596
7.092,595
7.093,583
7.094,571
7.095,554
7.096,541
7.097,536
7.098,533
7.099,533
7.100,538
7.101,545
7.102,552
7.103,561
7.104,581
7.105,601
7.106,613
7.107,621
7.108,624
7.109,614
7.110,600
7.111,584
7.112,571
7.113,563
7.114,560
7.115,558
7.116,553
7.117,553
7.118,560
7.119,568
7.120,579
7.121,597
7.122,613
7.123,622
7.124,627
7.125,627
7.126,619
7.127,608
7.128,593
7.129,578
7.130,572
7.131,570
7.132,566
7.133,560
7.134,559
7.135,561
7.136,566
7.137,579
7.138,595
7.139,604
7.140,603
7.141,602
7.142,596
7.143,584
7.144,571
7.145,556
7.146,547
7.147,543
7.148,538
7.149,532
7.150,527
7.151,528
7.152,532
7.153,539
7.154,553
7.155,570
7.156,576
7.157,579
7.158,580
7.159,569
7.160,555
7.161,540
7.162,522
7.163,511
7.164,507
7.165,506
7.166,503
7.167,500
7.168,503
7.169,510
7.170,519
7.171,534
7.172,545
7.173,545
7.174,548
7.175,544
7.176,534
7.177,519
7.178,502
7.179,487
7.180,479
7.181,475
7.182,472
7.183,471
7.184,476
7.185,484
7.186,491
7.187,499
7.188,511
7.189,520
7.190,524
7.191,525
7.192,517
7.193,504
7.194,491
7.195,473
7.196,459
7.197,451
7.198,446
7.199,443
7.200,446
7.201,453
7.202,461
7.203,469
7.204,483
7.205,501
7.206,512
7.207,518
7.208,521
7.209,511
7.210,497
7.211,479
7.212,461
7.213,451
7.214,444
7.215,442
7.216,447
7.217,456
7.218,462
7.219,464
7.220,472
7.221,487
7.222,502
7.223,508
7.224,509
7.225,507
7.226,496
7.227,483
7.228,468
7.229,453
7.230,442
7.231,435
7.232,432
7.233,434
7.234,441
7.235,451
7.236,464
7.237,483
7.238,502
7.239,511
7.240,512
7.241,515
7.242,511
7.243,500
7.244,487
7.245,473
7.246,460
7.247,453
7.248,449
7.249,443
7.250,440
7.251,443
7.252,452
7.253,465
7.254,484
7.255,502
7.256,510
7.257,517
7.258,522
7.259,514
7.260,503
7.261,488
7.262,470
7.263,460
7.264,454
7.265,450
7.266,447
7.267,451
7.268,458
7.269,466
7.270,480
7.271,500
7.272,515
7.273,521
7.274,527
7.275,526
7.276,515
7.277,500
7.278,483
7.279,467
7.280,457
7.281,452
7.282,449
7.283,451
7.284,457
7.285,465
7.286,474
7.287,490
7.288,506
7.289,516
7.290,520
7.291,524
7.292,520
7.293,512
7.294,501
7.295,484
7.296,472
7.297,464
7.298,459
7.299,457
7.300,460
7.301,466
7.302,471
7.303,482
7.304,502
7.305,521
7.306,527
7.307,530
7.308,530
7.309,523
7.310,511
7.311,493
7.312,474
7.313,465
7.314,462
7.315,460
7.316,457
7.317,460
7.318,467
7.319,474
7.320,486
7.321,505
7.322,522
7.323,531
7.324,538
7.325,540
7.326,532
7.327,521
7.328,501
7.329,480
7.330,470
7.331,464
7.332,462
7.333,464
7.334,472
7.335,482
7.336,492
7.337,509
7.338,529
7.339,542
7.340,546
7.341,547
7.342,538
7.343,523
7.344,509
7.345,490
7.346,475
7.347,466
7.348,462
7.349,460
7.350,460
7.351,465
7.352,470
7.353,479
7.354,494
7.355,512
7.356,521
7.357,527
7.358,529
7.359,524
7.360,514
7.361,501
7.362,483
7.363,471
7.364,463
7.365,457
7.366,456
7.367,462
7.368,470
7.369,480
7.370,494
7.371,514
7.372,531
7.373,539
7.374,543
7.375,540
7.376,529
7.377,515
7.378,496
7.379,480
7.380,470
7.381,466
7.382,462
7.383,460
7.384,467
7.385,478
7.386,491
7.387,511
7.388,530
7.389,537
7.390,536
7.391,534
7.392,526
7.393,512
7.394,496
7.395,478
7.396,470
7.397,472
7.398,473
7.399,471
7.400,471
7.401,476
7.402,483
7.403,489
7.404,501
7.405,515
7.406,522
7.407,527
7.408,531
7.409,523
7.410,513
7.411,501
7.412,487
7.413,477
7.414,471
7.415,466
7.416,464
7.417,468
7.418,476
7.419,485
7.420,499
7.421,516
7.422,531
7.423,540
7.424,546
7.425,543
7.426,534
7.427,523
7.428,505
7.429,487
7.430,479
7.431,476
7.432,473
7.433,472
7.434,477
7.435,486
7.436,499
7.437,518
7.438,538
7.439,546
7.440,545
7.441,545
7.442,537
7.443,525
7.444,513
7.445,497
7.446,483
7.447,475
7.448,468
7.449,464
7.450,467
7.451,473
7.452,483
7.453,496
7.454,517
7.455,537
7.456,547
7.457,552
7.458,554
7.459,545
7.460,531
7.461,514
7.462,498
7.463,487
7.464,479
7.465,473
7.466,470
7.467,474
7.468,482
7.469,491
7.470,506
7.471,526
7.472,542
7.473,549
7.474,554
7.475,553
7.476,544
7.477,529
7.478,512
7.479,499
7.480,492
7.481,487
7.482,483
7.483,483
7.484,491
7.485,503
7.486,516
7.487,532
7.488,550
7.489,559
7.490,561
7.491,561
7.492,552
7.493,538
7.494,524
7.495,510
7.496,506
7.497,504
7.498,501
7.499,498
7.500,499
7.501,502
7.502,506
7.503,513
7.504,528
7.505,545
7.506,556
7.507,566
7.508,568
7.509,553
7.510,533
7.511,510
7.512,488
7.513,476
7.514,468
7.515,467
7.516,471
7.517,479
7.518,489
7.519,498
7.520,512
7.521,531
7.522,547
7.523,551
7.524,550
7.525,541
7.526,526
7.527,512
7.528,492
7.529,473
7.530,463
7.531,460
7.532,458
7.533,459
7.534,465
7.535,472
7.536,486
7.537,507
7.538,529
7.539,542
7.540,547
7.541,552
7.542,548
7.543,538
7.544,524
7.545,501
7.546,482
7.547,466
7.548,459
7.549,455
7.550,457
7.551,463
7.552,473
7.553,487
7.554,508
7.555,527
7.556,537
7.557,546
7.558,551
7.559,538
7.560,521
7.561,502
7.562,480
7.563,467
7.564,462
7.565,461
7.566,463
7.567,469
7.568,478
7.569,487
7.570,502
7.571,528
7.572,547
7.573,553
7.574,553
7.575,547
7.576,535
7.577,521
7.578,504
7.579,489
7.580,478
7.581,468
7.582,461
7.583,458
7.584,459
7.585,467
7.586,478
7.587,493
7.588,511
7.589,521
7.590,527
7.591,531
7.592,526
7.593,513
7.594,495
7.595,477
7.596,469
7.597,467
7.598,469
7.599,477
7.600,491
7.601,508
7.602,524
7.603,545
7.604,574
7.605,602
7.606,615
7.607,627
7.608,638
7.609,637
7.610,633
7.611,628
7.612,620
7.613,615
7.614,618
7.615,624
7.616,631
7.617,643
7.618,654
7.619,655
7.620,662
7.621,672
7.622,678
7.623,672
7.624,664
7.625,650
7.626,627
7.627,601
7.628,570
7.629,541
7.630,516
7.631,492
7.632,473
7.633,461
7.634,457
7.635,454
7.636,455
7.637,466
7.638,478
7.639,481
7.640,481
7.641,483
7.642,473
7.643,454
7.644,431
7.645,406
7.646,389
7.647,380
7.648,373
7.649,368
7.650,367
7.651,374
7.652,384
7.653,397
7.654,419
7.655,444
7.656,457
7.657,467
7.658,469
7.659,457
7.660,442
7.661,427
7.662,414
7.663,408
7.664,408
7.665,412
7.666,412
7.667,418
7.668,429
7.669,442
7.670,459
7.671,481
7.672,501
7.673,511
7.674,517
7.675,513
7.676,500
7.677,487
7.678,471
7.679,459
7.680,453
7.681,451
7.682,450
7.683,450
7.684,456
7.685,466
7.686,477
7.687,497
7.688,520
7.689,537
7.690,545
7.691,549
7.692,543
7.693,529
7.694,515
7.695,497
7.696,486
7.697,482
7.698,484
7.699,485
7.700,492
7.701,504
7.702,516
7.703,531
7.704,550
7.705,566
7.706,572
7.707,575
7.708,575
7.709,563
7.710,546
7.711,526
7.712,507
7.713,497
7.714,495
7.715,497
7.716,503
7.717,511
7.718,515
7.719,518
7.720,528
7.721,546
7.722,562
7.723,570
7.724,575
7.725,572
7.726,562
7.727,547
7.728,527
7.729,508
7.730,497
7.731,492
7.732,489
7.733,488
7.734,495
7.735,504
7.736,515
7.737,537
7.738,564
7.739,580
7.740,587
7.741,590
7.742,581
7.743,564
7.744,546
7.745,526
7.746,514
7.747,511
7.748,510
7.749,508
7.750,508
7.751,513
7.752,522
7.753,535
7.754,558
7.755,580
7.756,589
7.757,592
7.758,592
7.759,583
7.760,568
7.761,550
7.762,531
7.763,521
7.764,518
7.765,518
7.766,516
7.767,524
7.768,539
7.769,553
7.770,568
7.771,586
7.772,603
7.773,609
7.774,614
7.775,609
7.776,595
7.777,579
7.778,560
7.779,545
7.780,537
7.781,531
7.782,530
7.783,535
7.784,542
7.785,551
7.786,562
7.787,584
7.788,606
7.789,619
7.790,627
7.791,633
7.792,627
7.793,615
7.794,604
7.795,588
7.796,575
7.797,567
7.798,563
7.799,562
7.800,563
7.801,568
7.802,574
7.803,588
7.804,610
7.805,631
7.806,641
7.807,648
7.808,645
7.809,629
7.810,612
7.811,594
7.812,573
7.813,559
7.814,551
7.815,546
7.816,544
7.817,548
7.818,554
7.819,563
7.820,578
7.821,597
7.822,609
7.823,612
7.824,614
7.825,607
7.826,590
7.827,574
7.828,556
7.829,540
7.830,527
7.831,515
7.832,509
7.833,508
7.834,517
7.835,524
7.836,533
7.837,548
7.838,564
7.839,572
7.840,573
7.841,575
7.842,567
7.843,553
7.844,532
7.845,509
7.846,494
7.847,483
7.848,480
7.849,480
7.850,483
7.851,486
7.852,489
7.853,499
7.854,519
7.855,539
7.856,548
7.857,553
7.858,552
7.859,540
7.860,523
7.861,505
7.862,488
7.863,478
7.864,470
7.865,463
7.866,458
7.867,459
7.868,466
7.869,474
7.870,489
7.871,512
7.872,527
7.873,533
7.874,535
7.875,525
7.876,506
7.877,487
7.878,466
7.879,451
7.880,444
7.881,440
7.882,438
7.883,438
7.884,443
7.885,452
7.886,463
7.887,481
7.888,502
7.889,513
7.890,518
7.891,520
7.892,513
7.893,501
7.894,486
7.895,466
7.896,453
7.897,445
7.898,441
7.899,436
7.900,436
7.901,445
7.902,455
7.903,466
7.904,484
7.905,502
7.906,513
7.907,517
7.908,512
7.909,497
7.910,482
7.911,462
7.912,441
7.913,428
7.914,421
7.915,420
7.916,425
7.917,434
7.918,446
7.919,458
7.920,475
7.921,498
7.922,516
7.923,523
7.924,528
7.925,523
7.926,508
7.927,490
7.928,470
7.929,453
7.930,444
7.931,438
7.932,434
7.933,435
7.934,445
7.935,458
7.936,474
7.937,496
7.938,520
7.939,535
7.940,544
7.941,548
7.942,537
7.943,520
7.944,500
7.945,475
7.946,459
7.947,452
7.948,449
7.949,444
7.950,442
7.951,449
7.952,459
7.953,474
7.954,495
7.955,514
7.956,525
7.957,529
7.958,528
7.959,515
7.960,502
7.961,485
7.962,468
7.963,458
7.964,452
7.965,449
7.966,447
7.967,452
7.968,463
7.969,474
7.970,491
7.971,512
7.972,529
7.973,537
7.974,542
7.975,536
7.976,522
7.977,506
7.978,487
7.979,472
7.980,465
7.981,462
7.982,463
7.983,461
7.984,462
7.985,467
7.986,481
7.987,503
7.988,523
7.989,531
7.990,538
7.991,541
7.992,527
7.993,509
7.994,492
7.995,474
7.996,464
7.997,460
7.998,458
7.999,455
8.000,456
8.001,460
8.002,469
8.003,483
8.004,506
8.005,528
8.006,539
8.007,546
8.008,548
8.009,536
8.010,519
8.011,498
8.012,475
8.013,461
8.014,454
8.015,453
8.016,455
8.017,463
8.018,472
8.019,481
8.020,495
8.021,514
8.022,529
8.023,534
8.024,537
8.025,534
8.026,522
8.027,507
8.028,486
8.029,470
8.030,458
8.031,452
8.032,450
8.033,455
8.034,464
8.035,472
8.036,481
8.037,501
8.038,522
8.039,535
8.040,540
8.041,543
8.042,534
8.043,520
8.044,505
8.045,486
8.046,473
8.047,463
8.048,458
8.049,454
8.050,461
8.051,472
8.052,485
8.053,498
8.054,519
8.055,540
8.056,546
8.057,548
8.058,547
8.059,536
8.060,522
8.061,501
8.062,478
8.063,467
8.064,462
8.065,458
8.066,456
8.067,463
8.068,474
8.069,489
8.070,508
8.071,532
8.072,546
8.073,550
8.074,551
8.075,543
8.076,529
8.077,511
8.078,492
8.079,476
8.080,468
8.081,466
8.082,467
8.083,470
8.084,476
8.085,485
8.086,493
8.087,510
8.088,533
8.089,547
8.090,555
8.091,556
8.092,545
8.093,531
8.094,515
8.095,499
8.096,491
8.097,485
8.098,477
8.099,473
8.100,479
8.101,488
8.102,502
8.103,516
8.104,534
8.105,550
8.106,555
8.107,559
8.108,558
8.109,545
8.110,533
8.111,513
8.112,492
8.113,479
8.114,474
8.115,470
8.116,468
8.117,474
8.118,480
8.119,486
8.120,499
8.121,516
8.122,528
8.123,531
8.124,534
8.125,529
8.126,516
8.127,502
8.128,486
8.129,477
8.130,471
8.131,465
8.132,461
8.133,461
8.134,468
8.135,477
8.136,484
8.137,501
8.138,525
8.139,542
8.140,548
8.141,543
8.142,527
8.143,511
8.144,496
8.145,478
8.146,464
8.147,460
8.148,460
8.149,459
8.150,462
8.151,471
8.152,480
8.153,491
8.154,509
8.155,527
8.156,535
8.157,542
8.158,546
8.159,537
8.160,520
8.161,499
8.162,479
8.163,467
8.164,459
8.165,456
8.166,457
8.167,462
8.168,470
8.169,480
8.170,495
8.171,515
8.172,529
8.173,534
8.174,541
8.175,537
8.176,526
8.177,513
8.178,494
8.179,479
8.180,472
8.181,468
8.182,463
8.183,465
8.184,473
8.185,483
8.186,492
8.187,509
8.188,527
8.189,540
8.190,544
8.191,544
8.192,533
8.193,519
8.194,503
8.195,482
8.196,468
8.197,460
8.198,453
8.199,448
8.200,449
8.201,459
8.202,472
8.203,488
8.204,509
8.205,525
8.206,535
8.207,543
8.208,542
8.209,527
8.210,510
8.211,496
8.212,487
8.213,486
8.214,487
8.215,485
8.216,488
8.217,502
8.218,522
8.219,543
8.220,568
8.221,595
8.222,619
8.223,635
8.224,649
8.225,656
8.226,653
8.227,646
8.228,637
8.229,632
8.230,631
8.231,628
8.232,626
8.233,621
8.234,623
8.235,625
8.236,628
8.237,639
8.238,650
8.239,643
8.240,629
8.241,614
8.242,589
8.243,562
8.244,533
8.245,502
8.246,479
8.247,462
8.248,447
8.249,433
8.250,424
8.251,422
8.252,425
8.253,432
8.254,446
8.255,455
8.256,456
8.257,457
8.258,450
8.259,433
8.260,417
8.261,400
8.262,384
8.263,376
8.264,374
8.265,374
8.266,372
8.267,375
8.268,379
8.269,388
8.270,406
8.271,429
8.272,446
8.273,457
8.274,464
8.275,460
8.276,451
8.277,441
8.278,429
8.279,419
8.280,414
8.281,410
8.282,409
8.283,411
8.284,420
8.285,433
8.286,448
8.287,470
8.288,494
8.289,506
8.290,512
8.291,516
8.292,508
8.293,496
8.294,483
8.295,466
8.296,455
8.297,453
8.298,454
8.299,455
8.300,461
8.301,471
8.302,482
8.303,498
8.304,519
8.305,538
8.306,549
8.307,557
8.308,559
8.309,551
8.310,540
8.311,521
8.312,503
8.313,493
8.314,489
8.315,489
8.316,491
8.317,496
8.318,501
8.319,511
8.320,526
8.321,545
8.322,559
8.323,565
8.324,568
8.325,564
8.326,554
8.327,542
8.328,527
8.329,516
8.330,509
8.331,504
8.332,501
8.333,502
8.334,508
8.335,514
8.336,523
8.337,540
8.338,558
8.339,568
8.340,576
8.341,583
8.342,578
8.343,569
8.344,557
8.345,538
8.346,523
8.347,511
8.348,502
8.349,497
8.350,499
8.351,507
8.352,518
8.353,532
8.354,553
8.355,569
8.356,576
8.357,581
8.358,580
8.359,571
8.360,559
8.361,545
8.362,530
8.363,520
8.364,516
8.365,512
8.366,511
8.367,517
8.368,524
8.369,533
8.370,548
8.371,568
8.372,581
8.373,588
8.374,594
8.375,591
8.376,583
8.377,570
8.378,554
8.379,543
8.380,536
8.381,533
8.382,532
8.383,532
8.384,536
8.385,540
8.386,549
8.387,568
8.388,587
8.389,600
8.390,608
8.391,610
8.392,601
8.393,591
8.394,579
8.395,566
8.396,559
8.397,555
8.398,554
8.399,555
8.400,560
8.401,568
8.402,574
8.403,584
8.404,603
8.405,619
8.406,629
8.407,636
8.408,638
8.409,632
8.410,622
8.411,603
8.412,587
8.413,578
8.414,573
8.415,569
8.416,568
8.417,571
8.418,579
8.419,587
8.420,601
8.421,620
8.422,633
8.423,638
8.424,639
8.425,631
8.426,620
8.427,609
8.428,595
8.429,582
8.430,571
8.431,566
8.432,562
8.433,561
8.434,563
8.435,568
8.436,573
8.437,582
8.438,592
8.439,594
8.440,594
8.441,595
8.442,588
8.443,578
8.444,564
8.445,547
8.446,535
8.447,527
8.448,521
8.449,516
8.450,517
8.451,522
8.452,527
8.453,535
8.454,549
8.455,564
8.456,572
8.457,574
8.458,566
8.459,550
8.460,534
8.461,516
8.462,503
8.463,496
8.464,492
8.465,491
8.466,487
8.467,486
8.468,486
8.469,488
8.470,497
8.471,510
8.472,518
8.473,521
8.474,524
8.475,519
8.476,509
8.477,497
8.478,482
8.479,473
8.480,468
8.481,463
8.482,459
8.483,458
8.484,462
8.485,468
8.486,476
8.487,492
8.488,505
8.489,510
8.490,511
8.491,510
8.492,501
8.493,491
8.494,481
8.495,467
8.496,460
8.497,455
8.498,450
8.499,446
8.500,448
8.501,453
8.502,460
8.503,469
8.504,482
8.505,492
8.506,494
8.507,496
8.508,495
8.509,487
8.510,480
8.511,470
8.512,459
8.513,452
8.514,449
8.515,446
8.516,444
8.517,446
8.518,450
8.519,455
8.520,466
8.521,481
8.522,492
8.523,499
8.524,502
8.525,496
8.526,486
8.527,475
8.528,462
8.529,455
8.530,452
8.531,452
8.532,453
8.533,454
8.534,458
8.535,461
8.536,467
8.537,478
8.538,491
8.539,497
8.540,502
8.541,506
8.542,503
8.543,495
8.544,483
8.545,470
8.546,463
8.547,456
8.548,452
8.549,449
8.550,450
8.551,454
8.552,459
8.553,468
8.554,483
8.555,496
8.556,504
8.557,511
8.558,513
8.559,510
8.560,503
8.561,491
8.562,479
8.563,471
8.564,467
8.565,463
8.566,463
8.567,468
8.568,473
8.569,478
8.570,487
8.571,499
8.572,506
8.573,511
8.574,518
8.575,518
8.576,514
8.577,508
8.578,497
8.579,489
8.580,482
8.581,478
8.582,475
8.583,475
8.584,479
8.585,483
8.586,488
8.587,498
8.588,507
8.589,511
8.590,515
8.591,519
8.592,516
8.593,511
8.594,504
8.595,494
8.596,486
8.597,480
8.598,474
8.599,469
8.600,468
8.601,472
8.602,478
8.603,485
8.604,497
8.605,508
8.606,514
8.607,517
8.608,518
8.609,516
8.610,512
8.611,503
8.612,495
8.613,494
8.614,492
8.615,489
8.616,485
8.617,483
8.618,484
8.619,487
8.620,495
8.621,504
8.622,510
8.623,511
8.624,516
8.625,517
8.626,514
8.627,508
8.628,497
8.629,491
8.630,488
8.631,486
8.632,480
8.633,476
8.634,477
8.635,480
8.636,485
8.637,495
8.638,505
8.639,511
8.640,515
8.641,520
8.642,521
8.643,520
8.644,513
8.645,504
8.646,498
8.647,494
8.648,488
8.649,482
8.650,480
8.651,481
8.652,483
8.653,485
8.654,496
8.655,510
8.656,518
8.657,523
8.658,524
8.659,524
8.660,523
8.661,515
8.662,506
8.663,500
8.664,495
8.665,490
8.666,486
8.667,484
8.668,486
8.669,490
8.670,498
8.671,507
8.672,515
8.673,524
8.674,533
8.675,535
8.676,531
8.677,527
8.678,515
8.679,504
8.680,495
8.681,490
8.682,488
8.683,489
8.684,489
8.685,489
8.686,492
8.687,500
8.688,508
8.689,512
8.690,516
8.691,523
8.692,525
8.693,528
8.694,526
8.695,518
8.696,511
8.697,504
8.698,497
8.699,494
8.700,498
8.701,503
8.702,507
8.703,510
8.704,512
8.705,517
8.706,521
8.707,527
8.708,531
8.709,533
8.710,532
8.711,526
8.712,519
8.713,515
8.714,509
8.715,500
8.716,499
8.717,500
8.718,503
8.719,505
8.720,511
8.721,517
8.722,521
8.723,525
8.724,532
8.725,537
8.726,540
8.727,537
8.728,525
8.729,513
8.730,500
8.731,490
8.732,483
8.733,477
8.734,476
8.735,478
8.736,482
8.737,487
8.738,494
8.739,496
8.740,501
8.741,508
8.742,512
8.743,515
8.744,514
8.745,509
8.746,504
8.747,498
8.748,491
8.749,484
8.750,482
8.751,483
8.752,485
8.753,488
8.754,493
8.755,498
8.756,503
8.757,510
8.758,515
8.759,518
8.760,518
8.761,511
8.762,504
8.763,500
8.764,496
8.765,490
8.766,487
8.767,485
8.768,484
8.769,483
8.770,486
8.771,492
8.772,498
8.773,503
8.774,508
8.775,513
8.776,519
8.777,519
8.778,511
8.779,504
8.780,499
8.781,494
8.782,488
8.783,483
8.784,481
8.785,484
8.786,487
8.787,492
8.788,495
8.789,499
8.790,504
8.791,512
8.792,519
8.793,520
8.794,515
8.795,507
8.796,502
8.797,495
8.798,487
8.799,479
8.800,475
8.801,472
8.802,471
8.803,471
8.804,472
8.805,472
8.806,476
8.807,483
8.808,491
8.809,498
8.810,504
8.811,506
8.812,509
8.813,509
8.814,505
8.815,500
8.816,496
8.817,495
8.818,499
8.819,500
8.820,508
8.821,521
8.822,536
8.823,550
8.824,565
8.825,582
8.826,597
8.827,608
8.828,611
8.829,613
8.830,615
8.831,617
8.832,621
8.833,627
8.834,635
8.835,640
8.836,644
8.837,652
8.838,660
8.839,664
8.840,664
8.841,664
8.842,660
8.843,653
8.844,641
8.845,623
8.846,606
8.847,587
8.848,566
8.849,546
8.850,527
8.851,511
8.852,494
8.853,480
8.854,470
8.855,462
8.856,457
8.857,458
8.858,461
8.859,464
8.860,463
8.861,458
8.862,450
8.863,440
8.864,426
8.865,410
8.866,394
8.867,382
8.868,373
8.869,367
8.870,371
8.871,381
8.872,390
8.873,396
8.874,400
8.875,406
8.876,419
8.877,428
8.878,431
8.879,433
8.880,435
8.881,435
8.882,433
8.883,431
8.884,434
8.885,436
8.886,439
8.887,444
8.888,449
8.889,455
8.890,464
8.891,472
8.892,480
8.893,484
8.894,485
8.895,483
8.896,481
8.897,481
8.898,479
8.899,476
8.900,476
8.901,474
8.902,473
8.903,473
8.904,477
8.905,483
8.906,491
8.907,496
8.908,502
8.909,512
8.910,522
8.911,527
8.912,534
8.913,536
8.914,534
8.915,530
8.916,523
8.917,519
8.918,518
8.919,515
8.920,514
8.921,514
8.922,516
8.923,522
8.924,532
8.925,542
8.926,550
8.927,551
8.928,547
8.929,541
8.930,535
8.931,529
8.932,526
8.933,526
8.934,524
8.935,520
8.936,514
8.937,511
8.938,512
8.939,515
8.940,521
8.941,527
8.942,536
8.943,544
8.944,547
8.945,546
8.946,545
8.947,541
8.948,536
8.949,530
8.950,525
8.951,519
8.952,514
8.953,513
8.954,516
8.955,520
8.956,524
8.957,532
8.958,540
8.959,550
8.960,556
8.961,556
8.962,552
8.963,547
8.964,543
8.965,539
8.966,536
8.967,533
8.968,526
8.969,520
8.970,519
8.971,521
8.972,526
8.973,534
8.974,543
8.975,549
8.976,556
8.977,561
8.978,562
8.979,562
8.980,560
8.981,554
8.982,545
8.983,539
8.984,536
8.985,532
8.986,527
8.987,525
8.988,527
8.989,533
8.990,546
8.991,560
8.992,570
8.993,578
8.994,582
8.995,582
8.996,584
8.997,579
8.998,572
8.999,566
9.000,564
9.001,563
9.002,560
9.003,559
9.004,564
9.005,569
9.006,577
9.007,588
9.008,595
9.009,603
9.010,606
9.011,604
9.012,602
9.013,600
9.014,597
9.015,590
9.016,584
9.017,580
9.018,578
9.019,577
9.020,576
9.021,578
9.022,580
9.023,587
9.024,595
9.025,602
9.026,609
9.027,613
9.028,612
9.029,608
9.030,600
9.031,594
9.032,587
9.033,583
9.034,579
9.035,575
9.036,572
9.037,574
9.038,576
9.039,578
9.040,583
9.041,587
9.042,592
9.043,598
9.044,599
9.045,594
9.046,586
9.047,576
9.048,568
9.049,562
9.050,555
9.051,548
9.052,542
9.053,538
9.054,537
9.055,539
9.056,542
9.057,547
9.058,555
9.059,561
9.060,564
9.061,559
9.062,553
9.063,545
9.064,536
9.065,527
9.066,520
9.067,514
9.068,510
9.069,507
9.070,505
9.071,505
9.072,507
9.073,511
9.074,515
9.075,521
9.076,528
9.077,532
9.078,529
9.079,524
9.080,517
9.081,510
9.082,499
9.083,489
9.084,482
9.085,477
9.086,475
9.087,477
9.088,478
9.089,480
9.090,486
9.091,491
9.092,497
9.093,505
9.094,507
9.095,502
9.096,499
9.097,495
9.098,489
9.099,484
9.100,480
9.101,472
9.102,465
9.103,458
9.104,452
9.105,453
9.106,461
9.107,470
9.108,479
9.109,487
9.110,493
9.111,492
9.112,490
9.113,486
9.114,480
9.115,475
9.116,469
9.117,466
9.118,462
9.119,457
9.120,454
9.121,451
9.122,451
9.123,454
9.124,462
9.125,469
9.126,478
9.127,483
9.128,482
9.129,480
9.130,476
9.131,471
9.132,468
9.133,465
9.134,462
9.135,459
9.136,454
9.137,451
9.138,451
9.139,456
9.140,468
9.141,482
9.142,495
9.143,507
9.144,512
9.145,510
9.146,504
9.147,497
9.148,488
9.149,479
9.150,472
9.151,464
9.152,458
9.153,455
9.154,455
9.155,457
9.156,462
9.157,468
9.158,478
9.159,488
9.160,497
9.161,499
9.162,496
9.163,491
9.164,486
9.165,478
9.166,472
9.167,468
9.168,466
9.169,463
9.170,463
9.171,463
9.172,468
9.173,477
9.174,486
9.175,492
9.176,496
9.177,499
9.178,496
9.179,495
9.180,492
9.181,484
9.182,480
9.183,480
9.184,480
9.185,478
9.186,473
9.187,473
9.188,475
9.189,478
9.190,486
9.191,493
9.192,500
9.193,508
9.194,513
9.195,513
9.196,511
9.197,506
9.198,498
9.199,490
9.200,485
9.201,480
9.202,474
9.203,469
9.204,468
9.205,474
9.206,486
9.207,496
9.208,504
9.209,509
9.210,511
9.211,507
9.212,503
9.213,498
9.214,497
9.215,493
9.216,488
9.217,486
9.218,489
9.219,492
9.220,492
9.221,491
9.222,492
9.223,497
9.224,506
9.225,511
9.226,515
9.227,516
9.228,513
9.229,509
9.230,504
9.231,496
9.232,491
9.233,489
9.234,486
9.235,484
9.236,481
9.237,479
9.238,479
9.239,485
9.240,493
9.241,502
9.242,509
9.243,512
9.244,511
9.245,508
9.246,505
9.247,501
9.248,494
9.249,487
9.250,482
9.251,482
9.252,481
9.253,480
9.254,479
9.255,482
9.256,489
9.257,497
9.258,505
9.259,512
9.260,515
9.261,511
9.262,509
9.263,508
9.264,504
9.265,498
9.266,490
9.267,482
9.268,476
9.269,474
9.270,480
9.271,487
9.272,496
9.273,506
9.274,516
9.275,524
9.276,527
9.277,522
9.278,516
9.279,515
9.280,511
9.281,504
9.282,494
9.283,486
9.284,480
9.285,480
9.286,483
9.287,490
9.288,492
9.289,497
9.290,502
9.291,508
9.292,515
9.293,524
9.294,530
9.295,534
9.296,537
9.297,530
9.298,518
9.299,505
9.300,497
9.301,493
9.302,489
9.303,486
9.304,487
9.305,489
9.306,492
9.307,496
9.308,502
9.309,511
9.310,524
9.311,531
9.312,532
9.313,531
9.314,527
9.315,524
9.316,520
9.317,515
9.318,511
9.319,505
9.320,504
9.321,504
9.322,509
9.323,514
9.324,520
9.325,529
9.326,539
9.327,543
9.328,543
9.329,540
9.330,529
9.331,519
9.332,512
9.333,508
9.334,506
9.335,502
9.336,498
9.337,499
9.338,504
9.339,510
9.340,516
9.341,521
9.342,527
9.343,533
9.344,532
9.345,527
9.346,524
9.347,521
9.348,519
9.349,512
9.350,506
9.351,500
9.352,495
9.353,489
9.354,483
9.355,480
9.356,481
9.357,486
9.358,494
9.359,501
9.360,507
9.361,508
9.362,505
9.363,500
9.364,495
9.365,490
9.366,484
9.367,483
9.368,483
9.369,482
9.370,485
9.371,488
9.372,491
9.373,496
9.374,502
9.375,510
9.376,518
9.377,522
9.378,517
9.379,513
9.380,506
9.381,498
9.382,491
9.383,484
9.384,483
9.385,483
9.386,481
9.387,484
9.388,487
9.389,489
9.390,497
9.391,506
9.392,514
9.393,521
9.394,522
9.395,518
9.396,514
9.397,508
9.398,501
9.399,497
9.400,494
9.401,491
9.402,489
9.403,488
9.404,490
9.405,492
9.406,495
9.407,501
9.408,509
9.409,516
9.410,516
9.411,514
9.412,512
9.413,512
9.414,508
9.415,505
9.416,502
9.417,497
9.418,492
9.419,492
9.420,492
9.421,493
9.422,495
9.423,501
9.424,510
9.425,517
9.426,519
9.427,515
9.428,507
9.429,501
9.430,494
9.431,484
9.432,477
9.433,476
9.434,476
9.435,476
9.436,477
9.437,483
9.438,489
9.439,497
9.440,512
9.441,526
9.442,540
9.443,555
9.444,562
9.445,564
9.446,566
9.447,566
9.448,565
9.449,567
9.450,576
9.451,587
9.452,595
9.453,603
9.454,612
9.455,623
9.456,637
9.457,653
9.458,668
9.459,679
9.460,685
9.461,681
9.462,673
9.463,657
9.464,639
9.465,621
9.466,608
9.467,594
9.468,580
9.469,563
9.470,547
9.471,532
9.472,524
9.473,518
9.474,511
9.475,502
9.476,495
9.477,483
9.478,465
9.479,449
9.480,436
9.481,423
9.482,413
9.483,403
9.484,395
9.485,391
9.486,388
9.487,387
9.488,388
9.489,390
9.490,394
9.491,397
9.492,400
9.493,405
9.494,408
9.495,407
9.496,403
9.497,400
9.498,398
9.499,398
9.500,403
9.501,409
9.502,412
9.503,416
9.504,425
9.505,434
9.506,445
9.507,453
9.508,458
9.509,463
9.510,470
9.511,470
9.512,471
9.513,471
9.514,468
9.515,465
9.516,462
9.517,458
9.518,458
9.519,459
9.520,463
9.521,470
9.522,478
9.523,488
9.524,501
9.525,513
9.526,524
9.527,527
9.528,521
9.529,515
9.530,509
9.531,502
9.532,496
9.533,496
9.534,498
9.535,498
9.536,495
9.537,499
9.538,504
9.539,511
9.540,520
9.541,529
9.542,540
9.543,548
9.544,547
9.545,540
9.546,531
9.547,524
9.548,524
9.549,523
9.550,520
9.551,518
9.552,516
9.553,516
9.554,519
9.555,525
9.556,530
9.557,532
9.558,538
9.559,543
9.560,548
9.561,548
9.562,546
9.563,543
9.564,540
9.565,536
9.566,531
9.567,527
9.568,524
9.569,524
9.570,526
9.571,527
9.572,530
9.573,536
9.574,542
9.575,546
9.576,553
9.577,555
9.578,550
9.579,546
9.580,542
9.581,536
9.582,532
9.583,531
9.584,531
9.585,531
9.586,529
9.587,529
9.588,530
9.589,536
9.590,542
9.591,547
9.592,552
9.593,557
9.594,557
9.595,554
9.596,550
9.597,547
9.598,545
9.599,540
9.600,534
9.601,532
9.602,530
9.603,528
9.604,530
9.605,533
9.606,540
9.607,550
9.608,562
9.609,572
9.610,578
9.611,576
9.612,574
9.613,569
9.614,563
9.615,556
9.616,550
9.617,546
9.618,544
9.619,546
9.620,548
9.621,550
9.622,556
9.623,564
9.624,573
9.625,583
9.626,590
9.627,592
9.628,589
9.629,585
9.630,581
9.631,578
9.632,575
9.633,575
9.634,574
9.635,575
9.636,577
9.637,583
9.638,588
9.639,594
9.640,599
9.641,605
9.642,610
9.643,617
9.644,620
9.645,617
9.646,611
9.647,603
9.648,597
9.649,591
9.650,587
9.651,581
9.652,576
9.653,575
9.654,574
9.655,575
9.656,579
9.657,585
9.658,589
9.659,593
9.660,595
9.661,593
9.662,588
9.663,582
9.664,575
9.665,567
9.666,563
9.667,562
9.668,562
9.669,562
9.670,567
9.671,571
9.672,572
9.673,573
9.674,576
9.675,574
9.676,571
9.677,563
9.678,554
9.679,550
9.680,544
9.681,536
9.682,526
9.683,520
9.684,521
9.685,520
9.686,524
9.687,527
9.688,526
9.689,525
9.690,526
9.691,529
9.692,533
9.693,536
9.694,533
9.695,529
9.696,523
9.697,513
9.698,505
9.699,498
9.700,492
9.701,488
9.702,484
9.703,487
9.704,489
9.705,492
9.706,498
9.707,503
9.708,507
9.709,512
9.710,512
9.711,507
9.712,503
9.713,496
9.714,488
9.715,480
9.716,473
9.717,469
9.718,471
9.719,476
9.720,480
9.721,480
9.722,481
9.723,491
9.724,499
9.725,502
9.726,503
9.727,498
9.728,492
9.729,486
9.730,477
9.731,469
9.732,463
9.733,460
9.734,458
9.735,461
9.736,466
9.737,470
9.738,474
9.739,480
9.740,487
9.741,492
9.742,494
9.743,494
9.744,492
9.745,487
9.746,482
9.747,477
9.748,470
9.749,464
9.750,465
9.751,467
9.752,470
9.753,471
9.754,474
9.755,479
9.756,485
9.757,490
9.758,491
9.759,494
9.760,494
9.761,490
9.762,484
9.763,478
9.764,472
9.765,469
9.766,467
9.767,468
9.768,472
9.769,474
9.770,480
9.771,487
9.772,491
9.773,497
9.774,504
9.775,504
9.776,503
9.777,499
9.778,494
9.779,487
9.780,479
9.781,473
9.782,467
9.783,468
9.784,471
9.785,474
9.786,479
9.787,487
9.788,495
9.789,502
9.790,507
9.791,508
9.792,510
9.793,510
9.794,506
9.795,504
9.796,503
9.797,497
9.798,489
9.799,486
9.800,485
9.801,486
9.802,486
9.803,490
9.804,495
9.805,495
9.806,496
9.807,500
9.808,503
9.809,508
9.810,507
9.811,501
9.812,497
9.813,494
9.814,489
9.815,486
9.816,487
9.817,494
9.818,499
9.819,501
9.820,501
9.821,503
9.822,506
9.823,512
9.824,518
9.825,521
9.826,521
9.827,518
9.828,514
9.829,510
9.830,505
9.831,501
9.832,496
9.833,491
9.834,486
9.835,484
9.836,488
9.837,495
9.838,500
9.839,507
9.840,513
9.841,519
9.842,523
9.843,523
9.844,517
9.845,512
9.846,511
9.847,510
9.848,506
9.849,504
9.850,501
9.851,497
9.852,494
9.853,494
9.854,497
9.855,501
9.856,505
9.857,512
9.858,515
9.859,518
9.860,520
9.861,517
9.862,514
9.863,509
9.864,504
9.865,497
9.866,496
9.867,495
9.868,492
9.869,493
9.870,499
9.871,503
9.872,507
9.873,512
9.874,514
9.875,514
9.876,516
9.877,515
9.878,508
9.879,503
9.880,496
9.881,493
9.882,490
9.883,490
9.884,492
9.885,492
9.886,494
9.887,499
9.888,505
9.889,511
9.890,517
9.891,524
9.892,529
9.893,528
9.894,516
9.895,507
9.896,499
9.897,492
9.898,489
9.899,488
9.900,487
9.901,488
9.902,490
9.903,495
9.904,500
9.905,504
9.906,510
9.907,518
9.908,522
9.909,524
9.910,521
9.911,514
9.912,511
9.913,509
9.914,506
9.915,500
9.916,495
9.917,494
9.918,497
9.919,497
9.920,501
9.921,505
9.922,509
9.923,515
9.924,522
9.925,525
9.926,528
9.927,527
9.928,523
9.929,519
9.930,514
9.931,513
9.932,511
9.933,505
9.934,499
9.935,497
9.936,499
9.937,505
9.938,512
9.939,520
9.940,529
9.941,535
9.942,537
9.943,535
9.944,528
9.945,522
9.946,515
9.947,510
9.948,504
9.949,502
9.950,504
9.951,505
9.952,505
9.953,509
9.954,515
9.955,519
9.956,523
9.957,528
9.958,530
9.959,534
9.960,536
9.961,531
9.962,529
9.963,525
9.964,521
9.965,515
9.966,512
9.967,512
9.968,514
9.969,518
9.970,524
9.971,529
9.972,529
9.973,532
9.974,535
9.975,537
9.976,535
9.977,526
9.978,516
9.979,511
9.980,505
9.981,500
9.982,494
9.983,491
9.984,489
9.985,486
9.986,486
9.987,489
9.988,496
9.989,503
9.990,509
9.991,514
9.992,518
9.993,518
9.994,512
9.995,506
9.996,499
9.997,492
9.998,485
9.999,481
10.000,481
10.001,481
10.002,481
10.003,486
10.004,492
10.005,495
10.006,500
10.007,508
10.008,512
10.009,516
10.010,516
10.011,512
10.012,510
10.013,505
10.014,499
10.015,494
10.016,491
10.017,489
10.018,489
10.019,492
10.020,499
10.021,503
10.022,507
10.023,510
10.024,512
10.025,515
10.026,521
10.027,518
10.028,512
10.029,504
10.030,496
10.031,488
10.032,484
10.033,485
10.034,487
10.035,488
10.036,492
10.037,497
10.038,503
10.039,508
10.040,515
10.041,519
10.042,518
10.043,515
10.044,509
10.045,504
10.046,500
10.047,496
10.048,491
10.049,486
10.050,485
10.051,485
10.052,487
10.053,492
10.054,496
10.055,496
10.056,499
10.057,501
10.058,501
10.059,504
10.060,503
10.061,500
10.062,497
10.063,494
10.064,492
10.065,487
10.066,484
10.067,483
10.068,485
10.069,492
10.070,505
10.071,519
10.072,534
10.073,548
10.074,562
10.075,572
10.076,582
10.077,586
10.078,590
10.079,593
10.080,595
10.081,597
10.082,601
10.083,611
10.084,622
10.085,631
10.086,642
10.087,654
10.088,662
10.089,668
10.090,670
10.091,666
10.092,659
10.093,645
10.094,623
10.095,601
10.096,585
10.097,567
10.098,545
10.099,527
10.100,514
10.101,501
10.102,490
10.103,483
10.104,478
10.105,470
10.106,460
10.107,454
10.108,449
10.109,447
10.110,441
10.111,431
10.112,418
10.113,409
10.114,401
10.115,392
10.116,386
10.117,381
10.118,379
10.119,382
10.120,386
10.121,393
10.122,400
10.123,409
10.124,416
10.125,420
10.126,424
10.127,425
10.128,424
10.129,423
10.130,421
10.131,419
10.132,419
10.133,423
10.134,431
10.135,438
10.136,446
10.137,454
10.138,459
10.139,464
10.140,470
10.141,475
10.142,479
10.143,481
10.144,477
10.145,475
10.146,475
10.147,473
10.148,470
10.149,465
10.150,466
10.151,473
10.152,482
10.153,494
10.154,502
10.155,508
10.156,516
10.157,525
10.158,530
10.159,533
10.160,531
10.161,525
10.162,520
10.163,517
10.164,512
10.165,506
10.166,503
10.167,503
10.168,506
10.169,509
10.170,517
10.171,524
10.172,528
10.173,533
10.174,539
10.175,545
10.176,550
10.177,549
10.178,543
10.179,536
10.180,530
10.181,523
10.182,518
10.183,517
10.184,516
10.185,517
10.186,521
10.187,527
10.188,529
10.189,531
10.190,536
10.191,539
10.192,543
10.193,543
10.194,540
10.195,540
10.196,540
10.197,536
10.198,531
10.199,526
10.200,524
10.201,524
10.202,528
10.203,532
10.204,536
10.205,539
10.206,542
10.207,546
10.208,548
10.209,549
10.210,547
10.211,541
10.212,536
10.213,531
10.214,528
10.215,524
10.216,522
10.217,523
10.218,526
10.219,532
10.220,545
10.221,557
10.222,567
10.223,575
10.224,578
10.225,578
10.226,572
10.227,559
10.228,543
10.229,535
10.230,532
10.231,529
10.232,528
10.233,529
10.234,533
10.235,536
10.236,541
10.237,547
10.238,552
10.239,556
10.240,560
10.241,564
10.242,568
10.243,571
10.244,568
10.245,566
10.246,561
10.247,558
10.248,556
10.249,558
10.250,561
10.251,566
10.252,568
10.253,573
10.254,578
10.255,583
10.256,590
10.257,596
10.258,599
10.259,601
10.260,598
10.261,592
10.262,587
10.263,582
10.264,578
10.265,579
10.266,583
10.267,589
10.268,588
10.269,587
10.270,590
10.271,594
10.272,597
10.273,604
10.274,611
10.275,615
10.276,614
10.277,608
10.278,601
10.279,595
10.280,588
10.281,582
10.282,580
10.283,581
10.284,581
10.285,579
10.286,580
10.287,583
10.288,585
10.289,593
10.290,602
10.291,602
10.292,599
10.293,593
10.294,583
10.295,575
10.296,568
10.297,560
10.298,553
10.299,549
10.300,551
10.301,552
10.302,555
10.303,560
10.304,563
10.305,561
10.306,562
10.307,565
10.308,563
10.309,565
10.310,560
10.311,548
10.312,539
10.313,528
10.314,519
10.315,513
10.316,514
10.317,513
10.318,512
10.319,515
10.320,519
10.321,520
10.322,518
10.323,520
10.324,523
10.325,524
10.326,524
10.327,517
10.328,511
10.329,505
10.330,499
10.331,492
10.332,486
10.333,482
10.334,480
10.335,478
10.336,482
10.337,486
10.338,487
10.339,490
10.340,497
10.341,499
10.342,495
10.343,490
10.344,481
10.345,477
10.346,474
10.347,469
10.348,463
10.349,460
10.350,459
10.351,459
10.352,460
10.353,464
10.354,471
10.355,476
10.356,482
10.357,488
10.358,490
10.359,488
10.360,480
10.361,472
10.362,468
10.363,462
10.364,455
10.365,449
10.366,448
10.367,448
10.368,449
10.369,452
10.370,458
10.371,462
10.372,469
10.373,479
10.374,488
10.375,492
10.376,493
10.377,486
10.378,474
10.379,464
10.380,454
10.381,447
10.382,444
10.383,447
10.384,449
10.385,448
10.386,453
10.387,460
10.388,468
10.389,476
10.390,482
10.391,484
10.392,483
10.393,479
10.394,469
10.395,464
10.396,461
10.397,459
10.398,457
10.399,457
10.400,461
10.401,464
10.402,465
10.403,470
10.404,478
10.405,481
10.406,485
10.407,492
10.408,493
10.409,492
10.410,486
10.411,476
10.412,472
10.413,467
10.414,461
10.415,456
10.416,456
10.417,457
10.418,459
10.419,463
10.420,471
10.421,478
10.422,484
10.423,491
10.424,495
10.425,496
10.426,493
10.427,486
10.428,477
10.429,470
10.430,464
10.431,458
10.432,456
10.433,459
10.434,460
10.435,461
10.436,467
10.437,474
10.438,481
10.439,486
10.440,492
10.441,496
10.442,496
10.443,495
10.444,487
10.445,480
10.446,477
10.447,472
10.448,464
10.449,463
10.450,467
10.451,472
10.452,477
10.453,483
10.454,488
10.455,491
10.456,496
10.457,501
10.458,503
10.459,501
10.460,494
10.461,486
10.462,481
10.463,476
10.464,471
10.465,468
10.466,471
10.467,475
10.468,475
10.469,477
10.470,481
10.471,486
10.472,492
10.473,501
10.474,505
10.475,506
10.476,504
10.477,495
10.478,489
10.479,484
10.480,479
10.481,474
10.482,472
10.483,474
10.484,476
10.485,479
10.486,486
10.487,494
10.488,499
10.489,502
10.490,504
10.491,504
10.492,502
10.493,497
10.494,487
10.495,482
10.496,477
10.497,471
10.498,467
10.499,465
10.500,466
10.501,468
10.502,474
10.503,484
10.504,493
10.505,499
10.506,510
10.507,520
10.508,518
10.509,509
10.510,495
10.511,481
10.512,475
10.513,471
10.514,468
10.515,465
10.516,465
10.517,467
10.518,469
10.519,475
10.520,486
10.521,496
10.522,503
10.523,511
10.524,516
10.525,518
10.526,516
10.527,510
10.528,503
10.529,496
10.530,488
10.531,481
10.532,478
10.533,476
10.534,478
10.535,483
10.536,492
10.537,502
10.538,508
10.539,513
10.540,518
10.541,520
10.542,522
10.543,520
10.544,512
10.545,504
10.546,494
10.547,487
10.548,481
10.549,476
10.550,477
10.551,482
10.552,489
10.553,494
10.554,499
10.555,502
10.556,508
10.557,513
10.558,517
10.559,519
10.560,517
10.561,512
10.562,507
10.563,500
10.564,492
10.565,483
10.566,482
10.567,483
10.568,486
10.569,494
10.570,505
10.571,514
10.572,519
10.573,528
10.574,534
10.575,534
10.576,530
10.577,521
10.578,511
10.579,504
10.580,501
10.581,497
10.582,495
10.583,496
10.584,497
10.585,499
10.586,507
10.587,517
10.588,521
10.589,525
10.590,530
10.591,533
10.592,531
10.593,521
10.594,507
10.595,498
10.596,492
10.597,488
10.598,483
10.599,481
10.600,480
10.601,478
10.602,480
10.603,490
10.604,502
10.605,509
10.606,510
10.607,510
10.608,506
10.609,503
10.610,494
10.611,484
10.612,480
10.613,475
10.614,468
10.615,463
10.616,464
10.617,469
10.618,477
10.619,488
10.620,502
10.621,510
10.622,512
10.623,515
10.624,516
10.625,512
10.626,504
10.627,492
10.628,485
10.629,484
10.630,481
10.631,473
10.632,468
10.633,467
10.634,470
10.635,474
10.636,485
10.637,498
10.638,506
10.639,512
10.640,515
10.641,515
10.642,515
10.643,513
10.644,507
10.645,502
10.646,498
10.647,496
10.648,489
10.649,483
10.650,478
10.651,480
10.652,487
10.653,498
10.654,508
10.655,515
10.656,525
10.657,530
10.658,525
10.659,517
10.660,502
10.661,487
10.662,479
10.663,475
10.664,474
10.665,473
10.666,475
10.667,477
10.668,479
10.669,487
10.670,498
10.671,505
10.672,511
10.673,515
10.674,512
10.675,504
10.676,495
10.677,484
10.678,475
10.679,466
10.680,460
10.681,456
10.682,458
10.683,467
10.684,476
10.685,488
10.686,508
10.687,527
10.688,545
10.689,562
10.690,575
10.691,578
10.692,579
10.693,580
10.694,579
10.695,582
10.696,587
10.697,590
10.698,593
10.699,602
10.700,614
10.701,630
10.702,645
10.703,660
10.704,672
10.705,675
10.706,673
10.707,671
10.708,659
10.709,643
10.710,621
10.711,599
10.712,580
10.713,561
10.714,543
10.715,523
10.716,508
10.717,496
10.718,490
10.719,488
10.720,485
10.721,479
10.722,473
10.723,470
10.724,465
10.725,457
10.726,446
10.727,431
10.728,417
10.729,403
10.730,391
10.731,383
10.732,381
10.733,380
10.734,384
10.735,391
10.736,405
10.737,422
10.738,430
10.739,436
10.740,442
10.741,438
10.742,432
10.743,425
10.744,414
10.745,408
10.746,405
10.747,403
10.748,404
10.749,409
10.750,418
10.751,431
10.752,448
10.753,465
10.754,480
10.755,486
10.756,489
10.757,492
10.758,490
10.759,488
10.760,483
10.761,477
10.762,472
10.763,466
10.764,459
10.765,451
10.766,453
10.767,462
10.768,470
10.769,482
10.770,496
10.771,509
10.772,522
10.773,535
10.774,536
10.775,534
10.776,528
10.777,519
10.778,512
10.779,510
10.780,509
10.781,508
10.782,504
10.783,503
10.784,504
10.785,511
10.786,523
10.787,537
10.788,545
10.789,551
10.790,557
10.791,554
10.792,548
10.793,537
10.794,525
10.795,518
10.796,517
10.797,516
10.798,513
10.799,515
10.800,519
10.801,524
10.802,531
10.803,544
10.804,558
10.805,566
10.806,572
10.807,574
10.808,567
10.809,557
10.810,544
10.811,534
10.812,526
10.813,519
10.814,515
10.815,513
10.816,515
10.817,517
10.818,522
10.819,530
10.820,542
10.821,551
10.822,557
10.823,565
10.824,566
10.825,565
10.826,560
10.827,551
10.828,546
10.829,540
10.830,535
10.831,528
10.832,524
10.833,525
10.834,527
10.835,534
10.836,547
10.837,560
10.838,572
10.839,582
10.840,588
10.841,583
10.842,573
10.843,560
10.844,548
10.845,539
10.846,536
10.847,536
10.848,532
10.849,533
10.850,539
10.851,547
10.852,556
10.853,572
10.854,585
10.855,593
10.856,599
10.857,599
10.858,592
10.859,586
10.860,576
10.861,566
10.862,560
10.863,559
10.864,557
10.865,555
10.866,558
10.867,563
10.868,569
10.869,582
10.870,599
10.871,614
10.872,620
10.873,624
10.874,622
10.875,616
10.876,606
10.877,595
10.878,591
10.879,588
10.880,582
10.881,577
10.882,574
10.883,575
10.884,579
10.885,588
10.886,603
10.887,619
10.888,629
10.889,636
10.890,638
10.891,633
10.892,627
10.893,619
10.894,604
10.895,591
10.896,580
10.897,573
10.898,570
10.899,572
10.900,576
10.901,583
10.902,593
10.903,606
10.904,614
10.905,616
10.906,616
10.907,616
10.908,610
10.909,602
10.910,587
10.911,572
10.912,560
10.913,547
10.914,538
10.915,534
10.916,538
10.917,541
10.918,544
10.919,554
10.920,567
10.921,575
10.922,579
10.923,581
10.924,575
10.925,565
10.926,553
10.927,536
10.928,522
10.929,516
10.930,514
10.931,513
10.932,513
10.933,513
10.934,513
10.935,514
10.936,521
10.937,532
10.938,538
10.939,542
10.940,545
10.941,541
10.942,533
10.943,520
10.944,504
10.945,493
10.946,482
10.947,473
10.948,470
10.949,473
10.950,478
10.951,484
10.952,495
10.953,509
10.954,519
10.955,526
10.956,531
10.957,530
10.958,523
10.959,511
10.960,492
10.961,475
10.962,467
10.963,459
10.964,449
10.965,440
10.966,442
10.967,451
10.968,462
10.969,478
10.970,491
10.971,501
10.972,510
10.973,515
10.974,512
10.975,503
10.976,491
10.977,476
10.978,468
10.979,462
10.980,456
10.981,450
10.982,451
10.983,456
10.984,462
10.985,470
10.986,484
10.987,497
10.988,500
10.989,500
10.990,502
10.991,497
10.992,491
10.993,480
10.994,467
10.995,460
10.996,455
10.997,452
10.998,451
10.999,454
11.000,460
11.001,465
11.002,472
11.003,488
11.004,504
11.005,510
11.006,514
11.007,511
11.008,501
11.009,490
11.010,475
11.011,459
11.012,452
11.013,448
11.014,448
11.015,449
11.016,454
11.017,459
11.018,468
11.019,486
11.020,508
11.021,524
11.022,533
11.023,538
11.024,531
11.025,514
11.026,494
11.027,472
11.028,457
11.029,450
11.030,447
11.031,445
11.032,445
11.033,450
11.034,456
11.035,468
11.036,484
11.037,501
11.038,512
11.039,523
11.040,528
11.041,522
11.042,512
11.043,499
11.044,483
11.045,472
11.046,465
11.047,462
11.048,461
11.049,468
11.050,473
11.051,477
11.052,487
11.053,504
11.054,515
11.055,521
11.056,524
11.057,519
11.058,509
11.059,501
11.060,491
11.061,482
11.062,475
11.063,470
11.064,467
11.065,467
11.066,472
11.067,476
11.068,479
11.069,490
11.070,506
11.071,518
11.072,526
11.073,532
11.074,529
11.075,520
11.076,510
11.077,492
11.078,479
11.079,468
11.080,463
11.081,460
11.082,462
11.083,469
11.084,479
11.085,490
11.086,508
11.087,525
11.088,530
11.089,534
11.090,538
11.091,532
11.092,521
11.093,509
11.094,494
11.095,484
11.096,477
11.097,472
11.098,466
11.099,470
11.100,479
11.101,487
11.102,497
11.103,514
11.104,525
11.105,531
11.106,541
11.107,544
11.108,538
11.109,528
11.110,510
11.111,492
11.112,480
11.113,473
11.114,469
11.115,471
11.116,478
11.117,484
11.118,489
11.119,503
11.120,521
11.121,535
11.122,541
11.123,548
11.124,546
11.125,537
11.126,526
11.127,510
11.128,496
11.129,488
11.130,483
11.131,478
11.132,476
11.133,479
11.134,486
11.135,495
11.136,513
11.137,531
11.138,540
11.139,545
11.140,547
11.141,542
11.142,535
11.143,526
11.144,513
11.145,502
11.146,495
11.147,490
11.148,486
11.149,486
11.150,492
11.151,501
11.152,513
11.153,532
11.154,545
11.155,550
11.156,555
11.157,552
11.158,543
11.159,531
11.160,515
11.161,503
11.162,494
11.163,487
11.164,483
11.165,481
11.166,485
11.167,495
11.168,506
11.169,522
11.170,539
11.171,550
11.172,556
11.173,560
11.174,554
11.175,543
11.176,529
11.177,510
11.178,497
11.179,490
11.180,486
11.181,481
11.182,482
11.183,486
11.184,491
11.185,498
11.186,511
11.187,525
11.188,533
11.189,536
11.190,536
11.191,527
11.192,515
11.193,503
11.194,491
11.195,481
11.196,474
11.197,468
11.198,464
11.199,468
11.200,475
11.201,483
11.202,499
11.203,519
11.204,537
11.205,543
11.206,542
11.207,536
11.208,523
11.209,510
11.210,494
11.211,485
11.212,481
11.213,473
11.214,468
11.215,467
11.216,472
11.217,481
11.218,488
11.219,504
11.220,522
11.221,533
11.222,538
11.223,543
11.224,539
11.225,528
11.226,512
11.227,493
11.228,483
11.229,476
11.230,474
11.231,476
11.232,481
11.233,486
11.234,492
11.235,502
11.236,520
11.237,536
11.238,540
11.239,541
11.240,541
11.241,536
11.242,528
11.243,517
11.244,502
11.245,491
11.246,483
11.247,476
11.248,473
11.249,474
11.250,477
11.251,482
11.252,492
11.253,507
11.254,519
11.255,527
11.256,533
11.257,530
11.258,518
11.259,503
11.260,488
11.261,480
11.262,473
11.263,467
11.264,463
11.265,460
11.266,464
11.267,471
11.268,479
11.269,495
11.270,514
11.271,529
11.272,542
11.273,555
11.274,559
11.275,558
11.276,554
11.277,547
11.278,545
11.279,545
11.280,547
11.281,551
11.282,557
11.283,569
11.284,584
11.285,601
11.286,627
11.287,655
11.288,673
11.289,685
11.290,688
11.291,680
11.292,665
11.293,641
11.294,615
11.295,591
11.296,574
11.297,563
11.298,551
11.299,543
11.300,537
11.301,532
11.302,531
11.303,533
11.304,533
11.305,530
11.306,526
11.307,514
11.308,493
11.309,473
11.310,450
11.311,431
11.312,420
11.313,411
11.314,403
11.315,396
11.316,392
11.317,391
11.318,396
11.319,409
11.320,424
11.321,435
11.322,442
11.323,449
11.324,447
11.325,441
11.326,432
11.327,415
11.328,405
11.329,401
11.330,399
11.331,398
11.332,400
11.333,410
11.334,420
11.335,433
11.336,453
11.337,472
11.338,484
11.339,492
11.340,497
11.341,494
11.342,490
11.343,481
11.344,470
11.345,463
11.346,457
11.347,455
11.348,453
11.349,457
11.350,465
11.351,472
11.352,484
11.353,499
11.354,511
11.355,519
11.356,528
11.357,532
11.358,528
11.359,521
11.360,508
11.361,495
11.362,486
11.363,480
11.364,475
11.365,475
11.366,479
11.367,487
11.368,498
11.369,517
11.370,538
11.371,552
11.372,561
11.373,568
11.374,566
11.375,559
11.376,547
11.377,531
11.378,521
11.379,517
11.380,514
11.381,513
11.382,516
11.383,520
11.384,524
11.385,531
11.386,545
11.387,561
11.388,570
11.389,577
11.390,583
11.391,582
11.392,573
11.393,556
11.394,541
11.395,534
11.396,531
11.397,526
11.398,517
11.399,515
11.400,519
11.401,525
11.402,537
11.403,551
11.404,563
11.405,568
11.406,572
11.407,568
11.408,557
11.409,546
11.410,533
11.411,522
11.412,516
11.413,517
11.414,517
11.415,518
11.416,524
11.417,532
11.418,544
11.419,561
11.420,575
11.421,580
11.422,580
11.423,580
11.424,574
11.425,564
11.426,555
11.427,543
11.428,538
11.429,538
11.430,536
11.431,534
11.432,532
11.433,536
11.434,541
11.435,551
11.436,567
11.437,581
11.438,588
11.439,595
11.440,597
11.441,588
11.442,576
11.443,563
11.444,551
11.445,543
11.446,540
11.447,537
11.448,534
11.449,539
11.450,548
11.451,560
11.452,582
11.453,608
11.454,625
11.455,630
11.456,633
11.457,632
11.458,623
11.459,610
11.460,592
11.461,580
11.462,574
11.463,572
11.464,570
11.465,570
11.466,575
11.467,581
11.468,590
11.469,605
11.470,623
11.471,634
11.472,640
11.473,645
11.474,640
11.475,632
11.476,619
11.477,598
11.478,585
11.479,575
11.480,566
11.481,563
11.482,565
11.483,571
11.484,578
11.485,589
11.486,608
11.487,625
11.488,635
11.489,640
11.490,637
11.491,623
11.492,606
11.493,588
11.494,573
11.495,564
11.496,557
11.497,550
11.498,544
11.499,545
11.500,550
11.501,555
11.502,564
11.503,579
11.504,590
11.505,597
11.506,603
11.507,602
11.508,591
11.509,575
11.510,555
11.511,537
11.512,523
11.513,512
11.514,503
11.515,498
11.516,499
11.517,506
11.518,515
11.519,528
11.520,544
11.521,553
11.522,559
11.523,562
11.524,555
11.525,542
11.526,525
11.527,505
11.528,491
11.529,480
11.530,473
11.531,467
11.532,466
11.533,471
11.534,481
11.535,493
11.536,509
11.537,521
11.538,526
11.539,533
11.540,534
11.541,524
11.542,513
11.543,499
11.544,484
11.545,472
11.546,460
11.547,450
11.548,447
11.549,453
11.550,461
11.551,467
11.552,478
11.553,493
11.554,506
11.555,512
11.556,514
11.557,509
11.558,498
11.559,487
11.560,472
11.561,459
11.562,450
11.563,445
11.564,441
11.565,438
11.566,438
11.567,441
11.568,450
11.569,467
11.570,486
11.571,495
11.572,501
11.573,506
11.574,504
11.575,495
11.576,481
11.577,463
11.578,451
11.579,443
11.580,438
11.581,436
11.582,441
11.583,445
11.584,451
11.585,462
11.586,481
11.587,498
11.588,504
11.589,506
11.590,505
11.591,496
11.592,483
11.593,468
11.594,455
11.595,449
11.596,444
11.597,441
11.598,439
11.599,442
11.600,449
11.601,458
11.602,475
11.603,496
11.604,511
11.605,519
11.606,526
11.607,522
11.608,514
11.609,499
11.610,479
11.611,461
11.612,448
11.613,439
11.614,435
11.615,435
11.616,440
11.617,446
11.618,457
11.619,477
11.620,495
11.621,504
11.622,514
11.623,522
11.624,515
11.625,502
11.626,484
11.627,465
11.628,454
11.629,448
11.630,444
11.631,445
11.632,450
11.633,460
11.634,470
11.635,480
11.636,498
11.637,518
11.638,527
11.639,532
11.640,531
11.641,521
11.642,508
11.643,490
11.644,471
11.645,457
11.646,450
11.647,446
11.648,447
11.649,454
11.650,467
11.651,477
11.652,493
11.653,514
11.654,528
11.655,535
11.656,538
11.657,537
11.658,533
11.659,524
11.660,508
11.661,492
11.662,482
11.663,475
11.664,469
11.665,465
11.666,466
11.667,471
11.668,480
11.669,497
11.670,518
11.671,530
11.672,538
11.673,544
11.674,542
11.675,532
11.676,516
11.677,497
11.678,484
11.679,475
11.680,466
11.681,461
11.682,463
11.683,473
11.684,480
11.685,487
11.686,503
11.687,517
11.688,527
11.689,534
11.690,538
11.691,533
11.692,523
11.693,508
11.694,494
11.695,487
11.696,483
11.697,482
11.698,479
11.699,477
11.700,478
11.701,480
11.702,492
11.703,510
11.704,526
11.705,534
11.706,541
11.707,540
11.708,534
11.709,520
11.710,498
11.711,480
11.712,468
11.713,461
11.714,457
11.715,457
11.716,463
11.717,473
11.718,485
11.719,503
11.720,523
11.721,539
11.722,548
11.723,551
11.724,544
11.725,532
11.726,520
11.727,504
11.728,492
11.729,480
11.730,470
11.731,464
11.732,469
11.733,479
11.734,487
11.735,499
11.736,519
11.737,538
11.738,549
11.739,556
11.740,558
11.741,553
11.742,543
11.743,526
11.744,506
11.745,494
11.746,490
11.747,485
11.748,479
11.749,478
11.750,480
11.751,486
11.752,500
11.753,518
11.754,531
11.755,539
11.756,547
11.757,543
11.758,530
11.759,519
11.760,501
11.761,483
11.762,472
11.763,465
11.764,460
11.765,456
11.766,457
11.767,462
11.768,468
11.769,484
11.770,500
11.771,511
11.772,519
11.773,527
11.774,525
11.775,518
11.776,505
11.777,489
11.778,478
11.779,473
11.780,471
11.781,466
11.782,462
11.783,463
11.784,468
11.785,479
11.786,497
11.787,515
11.788,526
11.789,537
11.790,543
11.791,537
11.792,524
11.793,505
11.794,487
11.795,476
11.796,465
11.797,459
11.798,455
11.799,458
11.800,464
11.801,471
11.802,485
11.803,504
11.804,519
11.805,529
11.806,535
11.807,532
11.808,524
11.809,512
11.810,496
11.811,484
11.812,476
11.813,468
11.814,460
11.815,457
11.816,461
