Fs=100
t,x
0,511
0.01,474
0.02,478
0.03,476
0.04,503
0.05,451
0.06,502
0.07,484
0.08,446
0.09,502
0.1,465
0.11,429
0.12,455
0.13,597
0.14,726
0.15,606
0.16,483
0.17,349
0.18,352
0.19,442
0.2,427
0.21,519
0.22,513
0.23,519
0.24,516
0.25,495
0.26,532
0.27,551
0.28,582
0.29,554
0.3,568
0.31,540
0.32,601
0.33,535
0.34,516
0.35,507
0.36,504
0.37,472
0.38,504
0.39,496
0.4,470
0.41,479
0.42,443
0.43,496
0.44,460
0.45,525
0.46,458
0.47,497
0.48,485
0.49,462
0.5,510
0.51,528
0.52,451
0.53,432
0.54,485
0.55,484
0.56,505
0.57,436
0.58,454
0.59,449
0.6,586
0.61,727
0.62,618
0.63,459
0.64,394
0.65,396
0.66,452
0.67,489
0.68,480
0.69,482
0.7,524
0.71,508
0.72,526
0.73,571
0.74,486
0.75,607
0.76,576
0.77,575
0.78,591
0.79,530
0.8,582
0.81,496
0.82,558
0.83,537
0.84,477
0.85,525
0.86,461
0.87,487
0.88,474
0.89,483
0.9,498
0.91,466
0.92,496
0.93,475
0.94,531
0.95,512
0.96,511
0.97,477
0.98,508
0.99,539
1,472
1.01,485
1.02,485
1.03,490
1.04,520
1.05,447
1.06,500
1.07,451
1.08,558
1.09,700
1.1,635
1.11,472
1.12,416
1.13,413
1.14,434
1.15,471
1.16,489
1.17,485
1.18,489
1.19,492
1.2,527
1.21,540
1.22,520
1.23,565
1.24,542
1.25,538
1.26,556
1.27,576
1.28,540
1.29,519
1.3,504
1.31,484
1.32,529
1.33,474
1.34,453
1.35,539
1.36,499
1.37,437
1.38,484
1.39,511
1.4,539
1.41,449
1.42,477
1.43,517
1.44,524
1.45,493
1.46,476
1.47,491
1.48,496
1.49,473
1.5,509
1.51,465
1.52,512
1.53,463
1.54,499
1.55,679
1.56,634
1.57,565
1.58,396
1.59,364
1.6,458
1.61,455
1.62,500
1.63,523
1.64,500
1.65,467
1.66,547
1.67,531
1.68,550
1.69,559
1.7,498
1.71,585
1.72,587
1.73,543
1.74,558
1.75,521
1.76,542
1.77,505
1.78,504
1.79,512
1.8,467
1.81,473
1.82,475
1.83,516
1.84,481
1.85,473
1.86,515
1.87,473
1.88,490
1.89,525
1.9,472
1.91,495
1.92,509
1.93,488
1.94,455
1.95,454
1.96,462
1.97,462
1.98,444
1.99,458
2,478
2.01,530
2.02,630
2.03,650
2.04,521
2.05,374
2.06,402
2.07,420
2.08,455
2.09,510
2.1,504
2.11,513
2.12,546
2.13,502
2.14,536
2.15,551
2.16,497
2.17,595
2.18,590
2.19,553
2.2,570
2.21,513
2.22,583
2.23,524
2.24,529
2.25,532
2.26,528
2.27,511
2.28,451
2.29,467
2.3,515
2.31,462
2.32,507
2.33,450
2.34,491
2.35,486
2.36,501
2.37,492
2.38,535
2.39,488
2.4,515
2.41,470
2.42,468
2.43,461
2.44,506
2.45,489
2.46,461
2.47,524
2.48,504
2.49,463
2.5,548
2.51,664
2.52,657
2.53,518
2.54,361
2.55,448
2.56,437
2.57,491
2.58,467
2.59,534
2.6,518
2.61,496
2.62,538
2.63,526
2.64,561
2.65,524
2.66,585
2.67,529
2.68,595
2.69,504
2.7,567
2.71,515
2.72,554
2.73,509
2.74,491
2.75,497
2.76,495
2.77,501
2.78,489
2.79,483
2.8,479
2.81,511
2.82,492
2.83,520
2.84,500
2.85,480
2.86,478
2.87,525
2.88,515
2.89,465
2.9,483
2.91,487
2.92,470
2.93,513
2.94,494
2.95,468
2.96,464
2.97,572
2.98,620
2.99,633
3,524
3.01,398
3.02,408
3.03,391
3.04,496
3.05,492
3.06,504
3.07,527
3.08,504
3.09,498
3.1,544
3.11,491
3.12,567
3.13,578
3.14,578
3.15,555
3.16,568
3.17,513
3.18,520
3.19,556
3.2,541
3.21,478
3.22,517
3.23,476
3.24,465
3.25,538
3.26,482
3.27,482
3.28,481
3.29,496
3.3,489
3.31,480
3.32,510
3.33,487
3.34,504
3.35,495
3.36,489
3.37,479
3.38,495
3.39,463
3.4,476
3.41,483
3.42,483
3.43,434
3.44,504
3.45,615
3.46,705
3.47,557
3.48,389
3.49,406
3.5,428
3.51,444
3.52,492
3.53,502
3.54,532
3.55,488
3.56,526
3.57,534
3.58,538
3.59,559
3.6,585
3.61,588
3.62,539
3.63,560
3.64,555
3.65,560
3.66,495
3.67,547
3.68,496
3.69,500
3.7,518
3.71,464
3.72,459
3.73,486
3.74,492
3.75,475
3.76,494
3.77,459
3.78,483
3.79,471
3.8,467
3.81,514
3.82,525
3.83,514
3.84,473
3.85,496
3.86,480
3.87,449
3.88,487
3.89,525
3.9,498
3.91,507
3.92,454
3.93,456
3.94,696
3.95,675
3.96,560
3.97,406
3.98,379
3.99,416
4,457
4.01,480
4.02,543
4.03,482
4.04,493
4.05,560
4.06,543
4.07,531
4.08,586
4.09,568
4.1,576
4.11,526
4.12,606
4.13,541
4.14,516
4.15,558
4.16,541
4.17,500
4.18,488
4.19,508
4.2,495
4.21,509
4.22,461
4.23,473
4.24,498
4.25,462
4.26,475
4.27,476
4.28,512
4.29,499
4.3,487
4.31,508
4.32,513
4.33,490
4.34,474
4.35,494
4.36,478
4.37,448
4.38,509
4.39,489
4.4,501
4.41,466
4.42,540
4.43,671
4.44,624
4.45,488
4.46,407
4.47,375
4.48,454
4.49,419
4.5,504
4.51,533
4.52,505
4.53,493
4.54,534
4.55,531
4.56,542
4.57,569
4.58,548
4.59,561
4.6,555
4.61,537
4.62,544
4.63,550
4.64,534
4.65,499
4.66,505
4.67,478
4.68,489
4.69,433
4.7,490
4.71,488
4.72,508
4.73,470
4.74,492
4.75,520
4.76,491
4.77,482
4.78,484
4.79,482
4.8,480
4.81,488
4.82,465
4.83,507
4.84,464
4.85,495
4.86,459
4.87,453
4.88,476
4.89,540
4.9,658
4.91,609
4.92,463
4.93,387
4.94,423
4.95,445
4.96,481
4.97,472
4.98,524
4.99,539
5,510
5.01,510
5.02,533
5.03,529
5.04,545
5.05,552
5.06,599
5.07,582
5.08,542
5.09,551
5.1,522
5.11,478
5.12,520
5.13,507
5.14,492
5.15,473
5.16,481
5.17,494
5.18,462
5.19,496
5.2,482
5.21,506
5.22,474
5.23,491
5.24,493
5.25,491
5.26,482
5.27,500
5.28,471
5.29,488
5.3,480
5.31,494
5.32,522
5.33,463
5.34,482
5.35,463
5.36,573
5.37,649
5.38,614
5.39,431
5.4,399
5.41,407
5.42,414
5.43,490
5.44,476
5.45,509
5.46,548
5.47,530
5.48,494
5.49,542
5.5,548
5.51,561
5.52,557
5.53,592
5.54,564
5.55,559
5.56,540
5.57,523
5.58,564
5.59,503
5.6,494
5.61,507
5.62,497
5.63,486
5.64,466
5.65,504
5.66,474
5.67,501
5.68,499
5.69,454
5.7,507
5.71,508
5.72,500
5.73,509
5.74,482
5.75,507
5.76,462
5.77,469
5.78,462
5.79,502
5.8,497
5.81,487
5.82,432
5.83,480
5.84,544
5.85,724
5.86,572
5.87,436
5.88,374
5.89,416
5.9,442
5.91,488
5.92,485
5.93,503
5.94,530
5.95,545
5.96,531
5.97,575
5.98,530
5.99,565
6,547
6.01,565
6.02,584
6.03,580
6.04,562
6.05,556
6.06,534
6.07,503
6.08,508
6.09,493
6.1,451
6.11,496
6.12,482
6.13,464
6.14,468
6.15,472
6.16,481
6.17,496
6.18,492
6.19,492
6.2,445
6.21,488
6.22,504
6.23,509
6.24,443
6.25,499
6.26,458
6.27,467
6.28,477
6.29,491
6.3,495
6.31,449
6.32,451
6.33,544
6.34,707
6.35,657
6.36,520
6.37,368
6.38,366
6.39,434
6.4,461
6.41,463
6.42,504
6.43,486
6.44,522
6.45,547
6.46,538
6.47,532
6.48,533
6.49,546
6.5,595
6.51,555
6.52,580
6.53,571
6.54,546
6.55,540
6.56,498
6.57,521
6.58,491
6.59,482
6.6,489
6.61,490
6.62,507
6.63,486
6.64,459
6.65,486
6.66,471
6.67,458
6.68,498
6.69,456
6.7,505
6.71,521
6.72,478
6.73,472
6.74,469
6.75,463
6.76,460
6.77,484
6.78,491
6.79,481
6.8,444
6.81,492
6.82,604
6.83,655
6.84,588
6.85,409
6.86,396
6.87,412
6.88,468
6.89,434
6.9,544
6.91,532
6.92,528
6.93,505
6.94,551
6.95,546
6.96,532
6.97,585
6.98,572
6.99,559
7,589
7.01,565
7.02,575
7.03,494
7.04,545
7.05,497
7.06,499
7.07,499
7.08,507
7.09,479
7.1,454
7.11,474
7.12,484
7.13,476
7.14,504
7.15,479
7.16,480
7.17,497
7.18,526
7.19,481
7.2,474
7.21,493
7.22,475
7.23,462
7.24,490
7.25,489
7.26,503
7.27,451
7.28,472
7.29,531
7.3,654
7.31,650
7.32,503
7.33,392
7.34,397
7.35,404
7.36,480
7.37,497
7.38,485
7.39,502
7.4,535
7.41,540
7.42,526
7.43,551
7.44,564
7.45,543
7.46,571
7.47,596
7.48,564
7.49,550
7.5,558
7.51,518
7.52,500
7.53,512
7.54,518
7.55,492
7.56,487
7.57,475
7.58,499
7.59,495
7.6,483
7.61,475
7.62,494
7.63,480
7.64,472
7.65,516
7.66,498
7.67,510
7.68,452
7.69,501
7.7,465
7.71,475
7.72,476
7.73,479
7.74,467
7.75,466
7.76,478
7.77,575
7.78,706
7.79,537
7.8,472
7.81,371
7.82,425
7.83,439
7.84,478
7.85,451
7.86,528
7.87,507
7.88,530
7.89,546
7.9,528
7.91,531
7.92,543
7.93,594
7.94,512
7.95,604
7.96,591
7.97,510
7.98,528
7.99,535
8,530
8.01,480
8.02,494
8.03,489
8.04,479
8.05,481
8.06,449
8.07,484
8.08,489
8.09,467
8.1,519
8.11,507
8.12,501
8.13,433
8.14,498
8.15,492
8.16,465
8.17,501
8.18,470
8.19,508
8.2,488
8.21,424
8.22,489
8.23,464
8.24,471
8.25,559
8.26,682
8.27,696
8.28,462
8.29,361
8.3,419
8.31,440
8.32,479
8.33,507
8.34,541
8.35,496
8.36,537
8.37,505
8.38,533
8.39,497
8.4,547
8.41,600
8.42,559
8.43,604
8.44,556
8.45,590
8.46,496
8.47,520
8.48,489
8.49,516
8.5,518
8.51,483
8.52,503
8.53,497
8.54,467
8.55,468
8.56,495
8.57,463
8.58,531
8.59,471
8.6,486
8.61,496
8.62,463
8.63,545
8.64,507
8.65,474
8.66,467
8.67,510
8.68,499
8.69,465
8.7,460
8.71,510
8.72,487
8.73,515
8.74,585
8.75,710
8.76,615
8.77,430
8.78,386
8.79,418
8.8,455
8.81,480
8.82,527
8.83,521
8.84,505
8.85,523
8.86,505
8.87,546
8.88,559
8.89,592
8.9,552
8.91,571
8.92,572
8.93,599
8.94,558
8.95,540
8.96,525
8.97,470
8.98,536
8.99,504
9,480
9.01,465
9.02,497
9.03,455
9.04,480
9.05,496
9.06,452
9.07,498
9.08,493
9.09,436
9.1,516
9.11,518
9.12,502
9.13,485
9.14,481
9.15,424
9.16,511
9.17,444
9.18,481
9.19,511
9.2,492
9.21,460
9.22,510
9.23,673
9.24,721
9.25,548
9.26,426
9.27,407
9.28,384
9.29,479
9.3,472
9.31,498
9.32,514
9.33,520
9.34,528
9.35,532
9.36,491
9.37,577
9.38,566
9.39,592
9.4,591
9.41,550
9.42,574
9.43,537
9.44,483
9.45,521
9.46,537
9.47,505
9.48,502
9.49,448
9.5,471
9.51,487
9.52,456
9.53,474
9.54,468
9.55,497
9.56,498
9.57,480
9.58,493
9.59,499
9.6,460
9.61,482
9.62,491
9.63,473
9.64,487
9.65,464
9.66,491
9.67,463
9.68,500
9.69,476
9.7,457
9.71,556
9.72,675
9.73,631
9.74,464
9.75,393
9.76,381
9.77,453
9.78,447
9.79,510
9.8,487
9.81,535
9.82,523
9.83,536
9.84,535
9.85,558
9.86,535
9.87,586
9.88,595
9.89,566
9.9,563
9.91,543
9.92,540
9.93,529
9.94,529
9.95,516
9.96,468
9.97,512
9.98,465
9.99,489
10,483
10.01,482
10.02,486
10.03,520
10.04,496
10.05,486
10.06,485
10.07,499
10.08,509
10.09,502
10.1,515
10.11,479
10.12,463
10.13,492
10.14,479
10.15,481
10.16,458
10.17,454
10.18,462
10.19,569
10.2,704
10.21,659
10.22,468
10.23,365
10.24,401
10.25,413
10.26,460
10.27,498
10.28,518
10.29,512
10.3,520
10.31,526
10.32,528
10.33,530
10.34,586
10.35,577
10.36,552
10.37,575
10.38,550
10.39,568
10.4,506
10.41,548
10.42,493
10.43,538
10.44,493
10.45,495
10.46,515
10.47,484
10.48,468
10.49,462
10.5,505
10.51,494
10.52,476
10.53,496
10.54,468
10.55,494
10.56,463
10.57,527
10.58,523
10.59,475
10.6,483
10.61,448
10.62,473
10.63,495
10.64,502
10.65,493
10.66,423
10.67,513
10.68,657
10.69,690
10.7,603
10.71,388
10.72,390
10.73,413
10.74,444
10.75,491
10.76,491
10.77,470
10.78,520
10.79,511
10.8,535
10.81,556
10.82,542
10.83,564
10.84,556
10.85,582
10.86,570
10.87,553
10.88,569
10.89,536
10.9,508
10.91,526
10.92,491
10.93,481
10.94,465
10.95,503
10.96,487
10.97,463
10.98,494
10.99,483
11,479
11.01,467
11.02,501
11.03,492
11.04,502
11.05,504
11.06,511
11.07,485
11.08,491
11.09,471
11.1,467
11.11,486
11.12,473
11.13,510
11.14,481
11.15,472
11.16,518
11.17,620
11.18,674
11.19,524
11.2,390
11.21,401
11.22,416
11.23,468
11.24,472
11.25,497
11.26,507
11.27,515
11.28,532
11.29,543
11.3,535
11.31,542
11.32,549
11.33,571
11.34,561
11.35,573
11.36,560
11.37,534
11.38,505
11.39,540
11.4,511
11.41,482
11.42,497
11.43,481
11.44,504
11.45,488
11.46,483
11.47,496
11.48,491
11.49,475
11.5,489
11.51,486
11.52,504
11.53,510
11.54,493
11.55,480
11.56,444
11.57,484
11.58,489
11.59,495
11.6,492
11.61,494
11.62,484
11.63,414
11.64,534
11.65,629
11.66,682
11.67,556
11.68,418
11.69,381
11.7,391
11.71,446
11.72,487
11.73,492
11.74,518
11.75,516
11.76,502
11.77,547
11.78,525
11.79,546
11.8,562
11.81,590
11.82,571
11.83,543
11.84,566
11.85,551
11.86,529
11.87,529
11.88,513
11.89,494
11.9,481
11.91,489
11.92,501
11.93,483
11.94,462
11.95,489
11.96,473
11.97,493
11.98,468
11.99,504
12,500
12.01,499
12.02,516
12.03,486
12.04,468
12.05,483
12.06,468
12.07,480
12.08,453
12.09,473
12.1,501
12.11,463
12.12,471
12.13,598
12.14,725
12.15,623
12.16,431
12.17,349
12.18,368
12.19,445
12.2,458
12.21,502
12.22,508
12.23,518
12.24,510
12.25,508
12.26,544
12.27,558
12.28,515
12.29,591
12.3,556
12.31,585
12.32,572
12.33,553
12.34,529
12.35,556
12.36,508
12.37,504
12.38,487
12.39,504
12.4,485
12.41,473
12.42,484
12.43,446
12.44,505
12.45,475
12.46,473
12.47,489
12.48,513
12.49,487
12.5,496
12.51,500
12.52,510
12.53,474
12.54,499
12.55,476
12.56,485
12.57,501
12.58,499
12.59,490
12.6,465
12.61,453
12.62,513
12.63,631
12.64,690
12.65,568
12.66,425
12.67,388
12.68,423
12.69,421
12.7,494
12.71,509
12.72,511
12.73,525
12.74,501
12.75,547
12.76,535
12.77,534
12.78,546
12.79,579
12.8,557
12.81,585
12.82,566
12.83,535
12.84,499
12.85,524
12.86,494
12.87,499
12.88,506
12.89,481
12.9,479
12.91,484
12.92,461
12.93,467
12.94,464
12.95,496
12.96,478
12.97,521
12.98,492
12.99,481
13,512
13.01,491
13.02,487
13.03,472
13.04,487
13.05,492
13.06,472
13.07,494
13.08,493
13.09,427
13.1,489
13.11,608
13.12,681
13.13,577
13.14,382
13.15,413
13.16,418
13.17,451
13.18,505
13.19,506
13.2,480
13.21,542
13.22,513
13.23,535
13.24,545
13.25,547
13.26,559
13.27,560
13.28,577
13.29,578
13.3,567
13.31,585
13.32,550
13.33,519
13.34,496
13.35,496
13.36,466
13.37,518
13.38,485
13.39,482
13.4,486
13.41,455
13.42,491
13.43,480
13.44,502
13.45,511
13.46,478
13.47,469
13.48,516
13.49,483
13.5,479
13.51,482
13.52,478
13.53,485
13.54,458
13.55,505
13.56,462
13.57,462
13.58,512
13.59,635
13.6,674
13.61,553
13.62,383
13.63,389
13.64,426
13.65,444
13.66,495
13.67,506
13.68,514
13.69,500
13.7,508
13.71,540
13.72,527
13.73,522
13.74,570
13.75,539
13.76,561
13.77,578
13.78,550
13.79,555
13.8,507
13.81,519
13.82,536
13.83,472
13.84,481
13.85,497
13.86,493
13.87,494
13.88,481
13.89,473
13.9,479
13.91,486
13.92,492
13.93,488
13.94,470
13.95,492
13.96,492
13.97,511
13.98,499
13.99,515
14,490
14.01,473
14.02,488
14.03,483
14.04,489
14.05,489
14.06,486
14.07,448
14.08,527
14.09,640
14.1,730
14.11,555
14.12,409
14.13,371
14.14,428
14.15,458
14.16,478
14.17,491
14.18,519
14.19,520
14.2,538
14.21,522
14.22,542
14.23,568
14.24,562
14.25,552
14.26,564
14.27,564
14.28,581
14.29,545
14.3,518
14.31,547
14.32,522
14.33,500
14.34,483
14.35,483
14.36,497
14.37,480
14.38,467
14.39,502
14.4,513
14.41,472
14.42,498
14.43,484
14.44,502
14.45,494
14.46,497
14.47,491
14.48,492
14.49,439
14.5,502
14.51,484
14.52,490
14.53,479
14.54,485
14.55,450
14.56,451
14.57,545
14.58,651
14.59,585
14.6,446
14.61,386
14.62,399
14.63,426
14.64,448
14.65,496
14.66,542
14.67,507
14.68,508
14.69,536
14.7,534
14.71,577
14.72,569
14.73,570
14.74,604
14.75,572
14.76,569
14.77,583
14.78,529
14.79,525
14.8,506
14.81,499
14.82,464
14.83,504
14.84,476
14.85,504
14.86,504
14.87,518
14.88,509
14.89,482
14.9,466
14.91,480
14.92,478
14.93,519
14.94,493
14.95,480
14.96,482
14.97,486
14.98,470
14.99,499
15,482
15.01,464
15.02,466
15.03,448
15.04,523
15.05,618
15.06,686
15.07,561
15.08,427
15.09,369
15.1,433
15.11,450
15.12,492
15.13,548
15.14,506
15.15,609
15.16,487
15.17,496
15.18,494
15.19,539
15.2,546
15.21,575
15.22,562
15.23,557
15.24,553
15.25,535
15.26,528
15.27,494
15.28,481
15.29,502
15.3,494
15.31,463
15.32,467
15.33,476
15.34,468
15.35,485
15.36,477
15.37,509
15.38,481
15.39,475
15.4,463
15.41,491
15.42,502
15.43,486
15.44,465
15.45,468
15.46,453
15.47,475
15.48,472
15.49,462
15.5,480
15.51,481
15.52,483
15.53,600
15.54,684
15.55,533
15.56,399
15.57,362
15.58,410
15.59,463
15.6,500
15.61,498
15.62,540
15.63,519
15.64,518
15.65,519
15.66,550
15.67,552
15.68,563
15.69,576
15.7,575
15.71,565
15.72,554
15.73,531
15.74,547
15.75,547
15.76,513
15.77,499
15.78,499
15.79,483
15.8,481
15.81,475
15.82,509
15.83,491
15.84,481
15.85,478
15.86,505
15.87,496
15.88,476
15.89,491
15.9,486
15.91,496
15.92,480
15.93,484
15.94,497
15.95,478
15.96,478
15.97,499
15.98,486
15.99,455
16,446
16.01,553
16.02,694
16.03,671
16.04,475
16.05,336
16.06,398
16.07,435
16.08,475
16.09,470
16.1,504
16.11,522
16.12,529
16.13,518
16.14,526
16.15,540
16.16,554
16.17,559
16.18,583
16.19,580
16.2,555
16.21,571
16.22,547
16.23,526
16.24,508
16.25,485
16.26,465
16.27,489
16.28,472
16.29,457
16.3,456
16.31,464
16.32,473
16.33,455
16.34,469
16.35,460
16.36,477
16.37,471
16.38,466
16.39,479
16.4,508
16.41,489
16.42,462
16.43,459
16.44,487
16.45,485
16.46,487
16.47,478
16.48,467
16.49,450
16.5,566
16.51,715
16.52,644
16.53,463
16.54,355
16.55,393
16.56,444
16.57,482
16.58,509
16.59,512
16.6,521
16.61,524
16.62,520
16.63,550
16.64,551
16.65,540
16.66,594
16.67,583
16.68,579
16.69,604
16.7,573
16.71,542
16.72,500
16.73,533
16.74,540
16.75,495
16.76,495
16.77,501
16.78,467
16.79,481
16.8,460
16.81,494
16.82,500
16.83,492
16.84,513
16.85,476
16.86,499
16.87,495
16.88,511
16.89,478
16.9,458
16.91,506
16.92,493
16.93,492
16.94,488
16.95,492
16.96,475
16.97,459
16.98,516
16.99,611
17,662
17.01,531
17.02,401
17.03,394
17.04,405
17.05,440
17.06,495
17.07,495
17.08,509
17.09,530
17.1,546
17.11,496
17.12,534
17.13,569
17.14,562
17.15,561
17.16,550
17.17,567
17.18,580
17.19,537
17.2,533
17.21,499
17.22,493
17.23,487
17.24,498
17.25,494
17.26,480
17.27,502
17.28,453
17.29,478
17.3,480
17.31,526
17.32,474
17.33,526
17.34,502
17.35,465
17.36,505
17.37,458
17.38,464
17.39,489
17.4,505
17.41,496
17.42,468
17.43,481
17.44,482
17.45,449
17.46,526
17.47,679
17.48,680
17.49,524
17.5,393
17.51,382
17.52,427
17.53,436
17.54,507
17.55,489
17.56,500
17.57,562
17.58,551
17.59,522
17.6,504
17.61,555
17.62,582
17.63,580
17.64,580
17.65,556
17.66,568
17.67,565
17.68,551
17.69,488
17.7,514
17.71,469
17.72,462
17.73,496
17.74,505
17.75,455
17.76,502
17.77,513
17.78,507
17.79,473
17.8,491
17.81,483
17.82,503
17.83,512
17.84,502
17.85,478
17.86,493
17.87,488
17.88,472
17.89,527
17.9,480
17.91,498
17.92,455
17.93,480
17.94,583
17.95,716
17.96,684
17.97,483
17.98,373
17.99,410
18,412
18.01,444
18.02,521
18.03,479
18.04,528
18.05,552
18.06,545
18.07,555
18.08,569
18.09,548
18.1,555
18.11,591
18.12,575
18.13,565
18.14,575
18.15,558
18.16,552
18.17,492
18.18,503
18.19,496
18.2,492
18.21,504
18.22,475
18.23,502
18.24,496
18.25,483
18.26,492
18.27,491
18.28,494
18.29,531
18.3,497
18.31,495
18.32,461
18.33,497
18.34,490
18.35,473
18.36,460
18.37,462
18.38,476
18.39,496
18.4,457
18.41,446
18.42,412
18.43,509
18.44,652
18.45,723
18.46,566
18.47,398
18.48,355
18.49,409
18.5,395
18.51,488
18.52,484
18.53,503
18.54,531
18.55,511
18.56,511
18.57,507
18.58,528
18.59,580
18.6,583
18.61,541
18.62,587
18.63,550
18.64,517
18.65,541
18.66,527
18.67,496
18.68,483
18.69,513
18.7,472
18.71,483
18.72,487
18.73,448
18.74,522
18.75,471
18.76,462
18.77,484
18.78,485
18.79,477
18.8,520
18.81,484
18.82,509
18.83,486
18.84,467
18.85,489
18.86,496
18.87,470
18.88,478
18.89,492
18.9,485
18.91,457
18.92,504
18.93,671
18.94,634
18.95,497
18.96,390
18.97,385
18.98,422
18.99,455
19,513
19.01,494
19.02,489
19.03,531
19.04,525
19.05,537
19.06,531
19.07,595
19.08,589
19.09,555
19.1,569
19.11,594
19.12,550
19.13,572
19.14,563
19.15,526
19.16,534
19.17,500
19.18,471
19.19,500
19.2,462
19.21,473
19.22,436
19.23,473
19.24,488
19.25,514
19.26,500
19.27,483
19.28,472
19.29,475
19.3,505
19.31,488
19.32,469
19.33,480
19.34,466
19.35,487
19.36,496
19.37,469
19.38,450
19.39,491
19.4,474
19.41,566
19.42,743
19.43,634
19.44,465
19.45,335
19.46,380
19.47,408
19.48,500
19.49,463
19.5,507
19.51,530
19.52,500
19.53,540
19.54,500
19.55,540
19.56,553
19.57,563
19.58,587
19.59,566
19.6,543
19.61,595
19.62,503
19.63,530
19.64,506
19.65,476
19.66,526
19.67,477
19.68,488
19.69,489
19.7,476
19.71,486
19.72,500
19.73,468
19.74,457
19.75,477
19.76,491
19.77,527
19.78,479
19.79,492
19.8,508
19.81,498
19.82,495
19.83,458
19.84,513
19.85,469
19.86,496
19.87,493
19.88,465
19.89,474
19.9,466
19.91,582
19.92,766
19.93,684
19.94,493
19.95,337
19.96,403
19.97,422
19.98,475
19.99,486
20,524
20.01,515
20.02,505
20.03,540
20.04,540
20.05,561
20.06,563
20.07,582
20.08,567
20.09,602
20.1,563
20.11,564
20.12,565
20.13,537
20.14,513
20.15,512
20.16,493
20.17,495
20.18,492
20.19,493
20.2,488
20.21,471
20.22,467
20.23,495
20.24,483
20.25,484
20.26,499
20.27,506
20.28,498
20.29,504
20.3,512
20.31,508
20.32,479
20.33,486
20.34,471
20.35,477
20.36,502
20.37,483
20.38,502
20.39,475
20.4,443
20.41,542
20.42,683
20.43,671
20.44,519
20.45,387
20.46,390
20.47,436
20.48,428
20.49,473
20.5,518
20.51,504
20.52,522
20.53,532
20.54,530
20.55,554
20.56,553
20.57,568
20.58,539
20.59,567
20.6,562
20.61,551
20.62,551
20.63,535
20.64,506
20.65,476
20.66,478
20.67,499
20.68,481
20.69,463
20.7,449
20.71,496
20.72,465
20.73,486
20.74,459
20.75,457
20.76,519
20.77,486
20.78,517
20.79,500
20.8,503
20.81,488
20.82,496
20.83,496
20.84,466
20.85,494
20.86,483
20.87,495
20.88,489
20.89,463
20.9,479
20.91,641
20.92,680
20.93,567
20.94,391
20.95,366
20.96,436
20.97,459
20.98,471
20.99,489
21,495
21.01,532
21.02,531
21.03,518
21.04,538
21.05,535
21.06,585
21.07,519
21.08,590
21.09,563
21.1,554
21.11,548
21.12,538
21.13,503
21.14,479
21.15,465
21.16,500
21.17,509
21.18,480
21.19,472
21.2,472
21.21,466
21.22,484
21.23,484
21.24,452
21.25,497
21.26,492
21.27,499
21.28,505
21.29,468
21.3,493
21.31,499
21.32,454
21.33,471
21.34,469
21.35,502
21.36,476
21.37,475
21.38,459
21.39,462
21.4,551
21.41,711
21.42,688
21.43,473
21.44,374
21.45,365
21.46,423
21.47,460
21.48,481
21.49,512
21.5,503
21.51,542
21.52,536
21.53,548
21.54,556
21.55,566
21.56,574
21.57,555
21.58,591
21.59,582
21.6,566
21.61,555
21.62,544
21.63,542
21.64,509
21.65,498
21.66,493
21.67,476
21.68,465
21.69,442
21.7,474
21.71,504
21.72,502
21.73,472
21.74,456
21.75,493
21.76,475
21.77,504
21.78,524
21.79,511
21.8,511
21.81,494
21.82,491
21.83,448
21.84,492
21.85,480
21.86,464
21.87,480
21.88,483
21.89,488
21.9,451
21.91,508
21.92,669
21.93,798
21.94,636
21.95,421
21.96,321
21.97,363
21.98,397
21.99,477
22,501
22.01,510
22.02,489
22.03,506
22.04,505
22.05,547
22.06,558
22.07,583
22.08,566
22.09,566
22.1,617
22.11,575
22.12,557
22.13,539
22.14,538
22.15,520
22.16,480
22.17,492
22.18,494
22.19,488
22.2,476
22.21,449
22.22,445
22.23,475
22.24,474
22.25,479
22.26,471
22.27,478
22.28,510
22.29,509
22.3,480
22.31,493
22.32,524
22.33,511
22.34,484
22.35,476
22.36,494
22.37,486
22.38,493
22.39,505
22.4,490
22.41,464
22.42,456
22.43,580
22.44,720
22.45,674
22.46,499
22.47,385
22.48,379
22.49,429
22.5,437
22.51,489
22.52,507
22.53,493
22.54,526
22.55,513
22.56,545
22.57,538
22.58,552
22.59,576
22.6,571
22.61,567
22.62,577
22.63,542
22.64,574
22.65,529
22.66,507
22.67,479
22.68,486
22.69,499
22.7,484
22.71,464
22.72,467
22.73,486
22.74,457
22.75,474
22.76,499
22.77,480
22.78,472
22.79,473
22.8,466
22.81,545
22.82,451
22.83,528
22.84,546
22.85,494
22.86,489
22.87,494
22.88,495
22.89,491
22.9,484
22.91,487
22.92,457
22.93,464
22.94,586
22.95,731
22.96,624
22.97,434
22.98,359
22.99,389
23,418
23.01,428
23.02,497
23.03,464
23.04,487
23.05,512
23.06,565
23.07,525
23.08,513
23.09,586
23.1,567
23.11,566
23.12,604
23.13,564
23.14,533
23.15,518
23.16,566
23.17,504
23.18,496
23.19,509
23.2,461
23.21,475
23.22,464
23.23,504
23.24,499
23.25,504
23.26,472
23.27,471
23.28,485
23.29,490
23.3,527
23.31,470
23.32,498
23.33,499
23.34,529
23.35,513
23.36,465
23.37,464
23.38,493
23.39,488
23.4,495
23.41,484
23.42,477
23.43,579
23.44,419
23.45,574
23.46,698
23.47,637
23.48,442
23.49,333
23.5,407
23.51,406
23.52,471
23.53,496
23.54,477
23.55,510
23.56,493
23.57,527
23.58,563
23.59,506
23.6,535
23.61,559
23.62,580
23.63,541
23.64,608
23.65,549
23.66,558
23.67,520
23.68,518
23.69,519
23.7,506
23.71,482
23.72,453
23.73,468
23.74,503
23.75,442
23.76,481
23.77,498
23.78,479
23.79,460
23.8,485
23.81,515
23.82,515
23.83,456
23.84,488
23.85,525
23.86,512
23.87,467
23.88,500
23.89,506
23.9,502
23.91,460
23.92,496
23.93,476
23.94,501
23.95,472
23.96,459
23.97,516
23.98,666
23.99,790
24,566
24.01,412
24.02,364
24.03,440
24.04,395
24.05,436
24.06,466
24.07,516
24.08,476
24.09,501
24.1,526
24.11,537
24.12,548
24.13,577
24.14,566
24.15,568
24.16,581
24.17,563
24.18,559
24.19,589
24.2,495
24.21,483
24.22,554
24.23,512
24.24,443
24.25,502
24.26,436
24.27,522
24.28,460
24.29,489
24.3,503
24.31,477
24.32,498
24.33,454
24.34,428
24.35,498
24.36,527
24.37,498
24.38,548
24.39,448
24.4,518
24.41,487
24.42,513
24.43,519
24.44,471
24.45,443
24.46,523
24.47,512
24.48,432
24.49,539
24.5,630
24.51,688
24.52,569
24.53,434
24.54,400
24.55,406
24.56,448
24.57,502
24.58,496
24.59,517
24.6,519
24.61,507
24.62,534
24.63,573
24.64,553
24.65,581
24.66,603
24.67,598
24.68,562
24.69,590
24.7,552
24.71,550
24.72,517
24.73,505
24.74,508
24.75,515
24.76,482
24.77,466
24.78,507
24.79,493
24.8,490
24.81,467
24.82,492
24.83,479
24.84,487
24.85,474
24.86,488
24.87,457
24.88,517
24.89,511
24.9,522
24.91,464
24.92,441
24.93,452
24.94,465
24.95,438
24.96,478
24.97,494
24.98,490
24.99,438
25,506
25.01,654
25.02,657
25.03,493
25.04,365
25.05,369
25.06,432
25.07,481
25.08,488
25.09,498
25.1,488
25.11,496
25.12,531
25.13,538
25.14,527
25.15,550
25.16,588
25.17,568
25.18,594
25.19,552
25.2,567
25.21,551
25.22,521
25.23,489
25.24,505
25.25,502
25.26,500
25.27,448
25.28,489
25.29,491
25.3,498
25.31,427
25.32,476
25.33,462
25.34,507
25.35,506
25.36,488
25.37,503
25.38,463
25.39,488
25.4,522
25.41,512
25.42,492
25.43,469
25.44,473
25.45,494
25.46,501
25.47,447
25.48,481
25.49,464
25.5,465
25.51,568
25.52,730
25.53,676
25.54,485
25.55,347
25.56,392
25.57,444
25.58,473
25.59,499
25.6,492
25.61,509
25.62,551
25.63,536
25.64,517
25.65,531
25.66,566
25.67,583
25.68,583
25.69,597
25.7,580
25.71,584
25.72,540
25.73,559
25.74,513
25.75,506
25.76,516
25.77,514
25.78,446
25.79,484
25.8,472
25.81,510
25.82,496
25.83,488
25.84,444
25.85,487
25.86,479
25.87,486
25.88,502
25.89,486
25.9,504
25.91,538
25.92,483
25.93,521
25.94,500
25.95,466
25.96,444
25.97,509
25.98,471
25.99,506
26,452
26.01,494
26.02,487
26.03,550
26.04,678
26.05,693
26.06,486
26.07,372
26.08,388
26.09,431
26.1,459
26.11,464
26.12,478
26.13,516
26.14,520
26.15,551
26.16,523
26.17,499
26.18,579
26.19,561
26.2,574
26.21,559
26.22,584
26.23,563
26.24,572
26.25,518
26.26,512
26.27,476
26.28,495
26.29,492
26.3,485
26.31,496
26.32,497
26.33,482
26.34,454
26.35,479
26.36,499
26.37,492
26.38,503
26.39,472
26.4,508
26.41,489
26.42,502
26.43,494
26.44,518
26.45,480
26.46,466
26.47,483
26.48,479
26.49,509
26.5,493
26.51,499
26.52,450
26.53,485
26.54,595
26.55,701
26.56,608
26.57,426
26.58,387
26.59,407
26.6,430
26.61,475
26.62,488
26.63,465
26.64,523
26.65,533
26.66,540
26.67,523
26.68,536
26.69,554
26.7,579
26.71,560
26.72,579
26.73,583
26.74,552
26.75,551
26.76,523
26.77,500
26.78,492
26.79,479
26.8,483
26.81,491
26.82,510
26.83,465
26.84,463
26.85,515
26.86,476
26.87,471
26.88,491
26.89,492
26.9,483
26.91,486
26.92,495
26.93,510
26.94,529
26.95,481
26.96,495
26.97,451
26.98,476
26.99,471
27,504
27.01,520
27.02,470
27.03,464
27.04,516
27.05,671
27.06,706
27.07,495
27.08,400
27.09,394
27.1,375
27.11,478
27.12,488
27.13,526
27.14,480
27.15,535
27.16,519
27.17,517
27.18,547
27.19,548
27.2,549
27.21,613
27.22,586
27.23,530
27.24,596
27.25,556
27.26,544
27.27,523
27.28,511
27.29,481
27.3,488
27.31,502
27.32,446
27.33,477
27.34,480
27.35,472
27.36,440
27.37,488
27.38,464
27.39,466
27.4,448
27.41,501
27.42,462
27.43,504
27.44,506
27.45,511
27.46,496
27.47,468
27.48,457
27.49,500
27.5,502
27.51,483
27.52,489
27.53,463
27.54,461
27.55,477
27.56,611
27.57,707
27.58,636
27.59,468
27.6,361
27.61,392
27.62,444
27.63,495
27.64,463
27.65,476
27.66,544
27.67,507
27.68,534
27.69,505
27.7,577
27.71,565
27.72,563
27.73,583
27.74,588
27.75,535
27.76,575
27.77,546
27.78,506
27.79,530
27.8,516
27.81,488
27.82,491
27.83,479
27.84,453
27.85,505
27.86,507
27.87,483
27.88,467
27.89,471
27.9,487
27.91,502
27.92,482
27.93,503
27.94,478
27.95,512
27.96,517
27.97,471
27.98,483
27.99,439
28,503
28.01,480
28.02,492
28.03,463
28.04,504
28.05,455
28.06,536
28.07,651
28.08,664
28.09,504
28.1,393
28.11,382
28.12,443
28.13,441
28.14,494
28.15,486
28.16,514
28.17,512
28.18,512
28.19,516
28.2,551
28.21,564
28.22,568
28.23,589
28.24,555
28.25,567
28.26,580
28.27,525
28.28,538
28.29,537
28.3,510
28.31,502
28.32,461
28.33,459
28.34,447
28.35,521
28.36,475
28.37,452
28.38,487
28.39,494
28.4,459
28.41,502
28.42,502
28.43,461
28.44,485
28.45,495
28.46,495
28.47,492
28.48,500
28.49,495
28.5,494
28.51,465
28.52,454
28.53,492
28.54,499
28.55,493
28.56,476
28.57,593
28.58,718
28.59,638
28.6,415
28.61,364
28.62,391
28.63,440
28.64,499
28.65,496
28.66,500
28.67,515
28.68,538
28.69,531
28.7,537
28.71,558
28.72,579
28.73,551
28.74,555
28.75,607
28.76,575
28.77,566
28.78,556
28.79,507
28.8,536
28.81,489
28.82,486
28.83,470
28.84,505
28.85,491
28.86,433
28.87,482
28.88,479
28.89,486
28.9,470
28.91,511
28.92,508
28.93,516
28.94,499
28.95,497
28.96,490
28.97,497
28.98,518
28.99,465
29,473
29.01,486
29.02,506
29.03,504
29.04,499
29.05,432
29.06,495
29.07,483
29.08,566
29.09,730
29.1,686
29.11,435
29.12,353
29.13,372
29.14,451
29.15,454
29.16,519
29.17,462
29.18,540
29.19,507
29.2,521
29.21,535
29.22,560
29.23,570
29.24,561
29.25,584
29.26,600
29.27,547
29.28,580
29.29,551
29.3,558
29.31,497
29.32,485
29.33,543
29.34,470
29.35,504
29.36,474
29.37,463
29.38,458
29.39,480
29.4,432
29.41,494
29.42,497
29.43,471
29.44,483
29.45,487
29.46,444
29.47,512
29.48,519
29.49,504
29.5,478
29.51,493
29.52,457
29.53,478
29.54,478
29.55,507
29.56,480
29.57,486
29.58,468
29.59,508
29.6,653
29.61,686
29.62,518
29.63,425
29.64,399
29.65,419
29.66,436
29.67,485
29.68,517
29.69,521
29.7,509
29.71,549
29.72,536
29.73,556
29.74,531
29.75,566
29.76,571
29.77,568
29.78,588
29.79,572
29.8,528
29.81,555
29.82,528
29.83,497
29.84,495
29.85,507
29.86,494
29.87,489
29.88,490
29.89,492
29.9,476
29.91,480
29.92,457
29.93,519
29.94,451
29.95,506
29.96,500
29.97,494
29.98,496
29.99,513
30,475
30.01,492
30.02,467
30.03,518
30.04,472
30.05,512
30.06,485
30.07,468
30.08,480
30.09,527
30.1,617
30.11,661
30.12,566
30.13,424
30.14,369
30.15,407
30.16,453
30.17,477
30.18,488
30.19,496
30.2,526
30.21,532
30.22,553
30.23,547
30.24,556
30.25,560
30.26,539
30.27,560
30.28,580
30.29,562
30.3,592
30.31,548
30.32,519
30.33,494
30.34,480
30.35,507
30.36,502
30.37,487
30.38,477
30.39,480
30.4,463
30.41,480
30.42,506
30.43,490
30.44,483
30.45,440
30.46,506
30.47,507
30.48,499
30.49,503
30.5,527
30.51,489
30.52,460
30.53,466
30.54,489
30.55,487
30.56,499
30.57,505
30.58,470
30.59,446
30.6,584
30.61,717
30.62,622
30.63,444
30.64,387
30.65,401
30.66,455
30.67,474
30.68,508
30.69,496
30.7,499
30.71,498
30.72,560
30.73,523
30.74,527
30.75,568
30.76,568
30.77,561
30.78,601
30.79,596
30.8,576
30.81,522
30.82,511
30.83,518
30.84,498
30.85,508
30.86,475
30.87,496
30.88,468
30.89,472
30.9,497
30.91,476
30.92,492
30.93,427
30.94,497
30.95,496
30.96,451
30.97,509
30.98,507
30.99,487
31,495
31.01,501
31.02,491
31.03,444
31.04,499
31.05,488
31.06,494
31.07,504
31.08,508
31.09,466
31.1,448
31.11,535
31.12,681
31.13,678
31.14,528
31.15,364
31.16,377
31.17,434
31.18,432
31.19,506
31.2,478
31.21,551
31.22,493
31.23,532
31.24,504
31.25,551
31.26,538
31.27,588
31.28,551
31.29,591
31.3,598
31.31,556
31.32,579
31.33,542
31.34,505
31.35,516
31.36,476
31.37,490
31.38,482
31.39,463
31.4,497
31.41,454
31.42,480
31.43,479
31.44,480
31.45,496
31.46,495
31.47,477
31.48,496
31.49,499
31.5,482
31.51,533
31.52,517
31.53,489
31.54,472
31.55,492
31.56,483
31.57,453
31.58,513
31.59,490
31.6,509
31.61,473
31.62,538
31.63,618
31.64,654
31.65,528
31.66,428
31.67,384
31.68,426
31.69,469
31.7,476
31.71,470
31.72,528
31.73,513
31.74,544
31.75,515
31.76,553
31.77,540
31.78,555
31.79,569
31.8,557
31.81,577
31.82,588
31.83,554
31.84,534
31.85,511
31.86,484
31.87,504
31.88,482
31.89,493
31.9,476
31.91,491
31.92,501
31.93,481
31.94,467
31.95,486
31.96,491
31.97,498
31.98,496
31.99,473
32,495
32.01,492
32.02,509
32.03,476
32.04,503
32.05,484
32.06,471
32.07,470
32.08,504
32.09,493
32.1,484
32.11,475
32.12,482
32.13,602
32.14,664
32.15,613
32.16,434
32.17,392
32.18,388
32.19,458
32.2,461
32.21,496
32.22,498
32.23,527
32.24,525
32.25,518
32.26,551
32.27,545
32.28,536
32.29,579
32.3,595
32.31,589
32.32,579
32.33,541
32.34,568
32.35,528
32.36,486
32.37,532
32.38,476
32.39,502
32.4,476
32.41,482
32.42,501
32.43,489
32.44,470
32.45,485
32.46,479
32.47,460
32.48,501
32.49,496
32.5,479
32.51,504
32.52,487
32.53,501
32.54,471
32.55,487
32.56,505
32.57,488
32.58,482
32.59,475
32.6,492
32.61,487
32.62,460
32.63,541
32.64,706
32.65,667
32.66,467
32.67,371
32.68,380
32.69,432
32.7,468
32.71,500
32.72,520
32.73,513
32.74,530
32.75,537
32.76,541
32.77,554
32.78,547
32.79,567
32.8,597
32.81,578
32.82,564
32.83,595
32.84,551
32.85,531
32.86,507
32.87,488
32.88,507
32.89,481
32.9,510
32.91,493
32.92,483
32.93,468
32.94,444
32.95,457
32.96,466
32.97,497
32.98,499
32.99,487
33,495
33.01,486
33.02,507
33.03,480
33.04,503
33.05,484
33.06,491
33.07,491
33.08,451
33.09,505
33.1,495
33.11,489
33.12,457
33.13,451
33.14,518
33.15,679
33.16,719
33.17,545
33.18,375
33.19,360
33.2,384
33.21,444
33.22,486
33.23,501
33.24,478
33.25,489
33.26,540
33.27,541
33.28,527
33.29,542
33.3,542
33.31,560
33.32,578
33.33,600
33.34,572
33.35,581
33.36,556
33.37,493
33.38,510
33.39,502
33.4,483
33.41,473
33.42,470
33.43,492
33.44,478
33.45,467
33.46,447
33.47,424
33.48,500
33.49,499
33.5,465
33.51,495
33.52,483
33.53,508
33.54,499
33.55,486
33.56,515
33.57,483
33.58,456
33.59,483
33.6,502
33.61,477
33.62,479
33.63,497
33.64,475
33.65,477
33.66,578
33.67,686
33.68,594
33.69,432
33.7,392
33.71,396
33.72,446
33.73,430
33.74,504
33.75,522
33.76,539
33.77,524
33.78,507
33.79,547
33.8,544
33.81,551
33.82,562
33.83,585
33.84,595
33.85,583
33.86,562
33.87,564
33.88,528
33.89,493
33.9,483
33.91,516
33.92,483
33.93,504
33.94,499
33.95,464
33.96,472
33.97,506
33.98,463
33.99,473
34,484
34.01,499
34.02,480
34.03,503
34.04,498
34.05,497
34.06,481
34.07,456
34.08,479
34.09,502
34.1,495
34.11,499
34.12,494
34.13,472
34.14,453
34.15,490
34.16,548
34.17,671
34.18,597
34.19,443
34.2,381
34.21,427
34.22,425
34.23,460
34.24,494
34.25,533
34.26,485
34.27,530
34.28,532
34.29,542
34.3,534
34.31,537
34.32,574
34.33,570
34.34,585
34.35,572
34.36,557
34.37,525
34.38,525
34.39,498
34.4,489
34.41,500
34.42,511
34.43,488
34.44,486
34.45,492
34.46,487
34.47,486
34.48,464
34.49,506
34.5,492
34.51,514
34.52,480
34.53,514
34.54,494
34.55,502
34.56,485
34.57,476
34.58,487
34.59,488
34.6,480
34.61,474
34.62,507
34.63,481
34.64,456
34.65,494
34.66,623
34.67,675
34.68,545
34.69,419
34.7,400
34.71,376
34.72,451
34.73,466
34.74,494
34.75,490
34.76,500
34.77,529
34.78,541
34.79,551
34.8,547
34.81,548
34.82,562
34.83,565
34.84,539
34.85,577
34.86,530
34.87,570
34.88,504
34.89,521
34.9,492
34.91,487
34.92,499
34.93,478
34.94,488
34.95,490
34.96,496
34.97,477
34.98,475
34.99,502
35,503
35.01,499
35.02,497
35.03,497
35.04,507
35.05,496
35.06,498
35.07,479
35.08,494
35.09,478
35.1,485
35.11,488
35.12,492
35.13,489
35.14,455
35.15,470
35.16,634
35.17,701
35.18,592
35.19,398
35.2,348
35.21,419
35.22,448
35.23,472
35.24,496
35.25,510
35.26,528
35.27,508
35.28,540
35.29,527
35.3,553
35.31,546
35.32,567
35.33,577
35.34,565
35.35,571
35.36,566
35.37,548
35.38,511
35.39,508
35.4,503
35.41,484
35.42,512
35.43,489
35.44,465
35.45,498
35.46,486
35.47,485
35.48,494
35.49,486
35.5,462
35.51,494
35.52,487
35.53,499
35.54,485
35.55,516
35.56,513
35.57,511
35.58,495
35.59,476
35.6,460
35.61,495
35.62,490
35.63,507
35.64,477
35.65,472
35.66,479
35.67,558
35.68,700
35.69,671
35.7,502
35.71,367
35.72,383
35.73,444
35.74,475
35.75,491
35.76,511
35.77,512
35.78,510
35.79,530
35.8,525
35.81,531
35.82,562
35.83,548
35.84,573
35.85,595
35.86,591
35.87,561
35.88,545
35.89,547
35.9,524
35.91,510
35.92,499
35.93,481
35.94,489
35.95,476
35.96,455
35.97,456
35.98,457
35.99,477
36,464
36.01,487
36.02,465
36.03,483
36.04,481
36.05,496
36.06,474
36.07,502
36.08,503
36.09,501
36.1,487
36.11,468
36.12,483
36.13,479
36.14,493
36.15,500
36.16,480
36.17,473
36.18,454
36.19,521
36.2,662
36.21,681
36.22,547
36.23,405
36.24,390
36.25,416
36.26,431
36.27,480
36.28,513
36.29,509
36.3,510
36.31,538
36.32,537
36.33,532
36.34,543
36.35,563
36.36,590
36.37,571
36.38,573
36.39,578
36.4,572
36.41,547
36.42,533
36.43,491
36.44,492
36.45,494
36.46,478
36.47,488
36.48,472
36.49,468
36.5,494
36.51,467
36.52,492
36.53,468
36.54,493
36.55,500
36.56,493
36.57,488
36.58,469
36.59,510
36.6,487
36.61,503
36.62,496
36.63,474
36.64,472
36.65,492
36.66,472
36.67,498
36.68,478
36.69,475
36.7,521
36.71,672
36.72,643
36.73,481
36.74,384
36.75,391
36.76,432
36.77,439
36.78,484
36.79,521
36.8,516
36.81,514
36.82,515
36.83,550
36.84,526
36.85,572
36.86,551
36.87,582
36.88,572
36.89,575
36.9,573
36.91,553
36.92,545
36.93,524
36.94,483
36.95,492
36.96,491
36.97,473
36.98,506
36.99,480
37,487
37.01,473
37.02,471
37.03,487
37.04,487
37.05,486
37.06,480
37.07,489
37.08,504
37.09,487
37.1,469
37.11,524
37.12,492
37.13,484
37.14,502
37.15,489
37.16,481
37.17,487
37.18,491
37.19,481
37.2,486
37.21,560
37.22,683
37.23,624
37.24,464
37.25,376
37.26,398
37.27,435
37.28,486
37.29,507
37.3,490
37.31,505
37.32,518
37.33,528
37.34,510
37.35,551
37.36,559
37.37,563
37.38,570
37.39,577
37.4,593
37.41,569
37.42,541
37.43,539
37.44,540
37.45,506
37.46,492
37.47,488
37.48,488
37.49,505
37.5,469
37.51,465
37.52,494
37.53,466
37.54,482
37.55,470
37.56,503
37.57,485
37.58,499
37.59,492
37.6,499
37.61,481
37.62,507
37.63,481
37.64,514
37.65,479
37.66,475
37.67,483
37.68,498
37.69,475
37.7,469
37.71,474
37.72,474
37.73,536
37.74,692
37.75,670
37.76,506
37.77,371
37.78,354
37.79,423
37.8,457
37.81,494
37.82,516
37.83,488
37.84,526
37.85,513
37.86,530
37.87,556
37.88,563
37.89,564
37.9,568
37.91,582
37.92,590
37.93,568
37.94,552
37.95,566
37.96,505
37.97,513
37.98,494
37.99,476
38,486
38.01,482
38.02,465
38.03,482
38.04,480
38.05,474
38.06,472
38.07,474
38.08,457
38.09,449
38.1,487
38.11,497
38.12,492
38.13,513
38.14,499
38.15,522
38.16,488
38.17,472
38.18,478
38.19,483
38.2,493
38.21,469
38.22,529
38.23,477
38.24,468
38.25,552
38.26,628
38.27,684
38.28,527
38.29,378
38.3,378
38.31,433
38.32,466
38.33,496
38.34,492
38.35,523
38.36,520
38.37,515
38.38,543
38.39,556
38.4,555
38.41,558
38.42,580
38.43,576
38.44,581
38.45,586
38.46,560
38.47,539
38.48,525
38.49,509
38.5,505
38.51,484
38.52,484
38.53,476
38.54,483
38.55,442
38.56,486
38.57,485
38.58,491
38.59,495
38.6,468
38.61,498
38.62,500
38.63,479
38.64,469
38.65,516
38.66,498
38.67,469
38.68,480
38.69,487
38.7,463
38.71,496
38.72,492
38.73,490
38.74,449
38.75,493
38.76,590
38.77,684
38.78,590
38.79,456
38.8,376
38.81,395
38.82,451
38.83,471
38.84,491
38.85,509
38.86,513
38.87,529
38.88,532
38.89,527
38.9,563
38.91,559
38.92,557
38.93,599
38.94,587
38.95,598
38.96,571
38.97,550
38.98,525
38.99,521
39,508
39.01,491
39.02,497
39.03,481
39.04,491
39.05,476
39.06,473
39.07,478
39.08,479
39.09,481
39.1,473
39.11,494
39.12,519
39.13,496
39.14,481
39.15,494
39.16,498
39.17,491
39.18,480
39.19,487
39.2,456
39.21,481
39.22,510
39.23,497
39.24,467
39.25,489
39.26,536
39.27,657
39.28,674
39.29,523
39.3,405
39.31,376
39.32,424
39.33,459
39.34,466
39.35,489
39.36,525
39.37,520
39.38,506
39.39,550
39.4,551
39.41,560
39.42,557
39.43,589
39.44,599
39.45,577
39.46,567
39.47,577
39.48,569
39.49,511
39.5,515
39.51,498
39.52,476
39.53,470
39.54,466
39.55,475
39.56,461
39.57,468
39.58,477
39.59,488
39.6,469
39.61,430
39.62,476
39.63,468
39.64,478
39.65,490
39.66,477
39.67,508
39.68,502
39.69,476
39.7,464
39.71,467
39.72,476
39.73,478
39.74,494
39.75,482
39.76,457
39.77,475
39.78,585
39.79,720
39.8,670
39.81,486
39.82,357
39.83,391
39.84,419
39.85,450
39.86,477
39.87,496
39.88,520
39.89,520
39.9,531
39.91,531
39.92,542
39.93,549
39.94,543
39.95,588
39.96,593
39.97,585
39.98,575
39.99,547
40,538
40.01,516
40.02,495
40.03,496
40.04,500
40.05,495
40.06,479
40.07,470
40.08,465
40.09,476
40.1,491
40.11,460
40.12,483
40.13,492
40.14,499
40.15,480
40.16,502
40.17,515
40.18,484
40.19,481
40.2,477
40.21,494
40.22,460
40.23,479
40.24,494
40.25,498
40.26,496
40.27,455
40.28,463
40.29,563
40.3,703
40.31,625
40.32,461
40.33,385
40.34,417
40.35,402
40.36,465
40.37,486
40.38,473
40.39,503
40.4,520
40.41,545
40.42,520
40.43,523
40.44,562
40.45,568
40.46,583
40.47,591
40.48,572
40.49,578
40.5,552
40.51,531
40.52,523
40.53,515
40.54,487
40.55,487
40.56,496
40.57,462
40.58,474
40.59,481
40.6,494
40.61,470
40.62,471
40.63,505
40.64,456
40.65,463
40.66,489
40.67,488
40.68,480
40.69,511
40.7,485
40.71,466
40.72,480
40.73,472
40.74,461
40.75,492
40.76,485
40.77,479
40.78,470
40.79,524
40.8,688
40.81,668
40.82,517
40.83,385
40.84,386
40.85,417
40.86,456
40.87,479
40.88,496
40.89,530
40.9,526
40.91,534
40.92,536
40.93,540
40.94,549
40.95,556
40.96,563
40.97,598
40.98,580
40.99,563
41,550
41.01,539
41.02,536
41.03,510
41.04,482
41.05,482
41.06,495
41.07,493
41.08,475
41.09,465
41.1,495
41.11,495
41.12,466
41.13,466
41.14,480
41.15,502
41.16,496
41.17,485
41.18,492
41.19,526
41.2,510
41.21,487
41.22,478
41.23,476
41.24,487
41.25,471
41.26,486
41.27,500
41.28,503
41.29,470
41.3,499
41.31,647
41.32,703
41.33,571
41.34,399
41.35,357
41.36,392
41.37,461
41.38,480
41.39,503
41.4,503
41.41,506
41.42,503
41.43,543
41.44,535
41.45,536
41.46,560
41.47,588
41.48,581
41.49,592
41.5,580
41.51,547
41.52,530
41.53,519
41.54,507
41.55,496
41.56,507
41.57,491
41.58,467
41.59,481
41.6,458
41.61,483
41.62,478
41.63,456
41.64,484
41.65,474
41.66,480
41.67,488
41.68,495
41.69,480
41.7,484
41.71,491
41.72,496
41.73,508
41.74,472
41.75,482
41.76,488
41.77,482
41.78,482
41.79,486
41.8,455
41.81,475
41.82,534
41.83,642
41.84,680
41.85,534
41.86,413
41.87,379
41.88,406
41.89,445
41.9,447
41.91,482
41.92,518
41.93,529
41.94,500
41.95,536
41.96,540
41.97,528
41.98,565
41.99,571
42,577
42.01,563
42.02,579
42.03,566
42.04,540
42.05,527
42.06,494
42.07,511
42.08,489
42.09,470
42.1,481
42.11,469
42.12,479
42.13,467
42.14,478
42.15,476
42.16,494
42.17,483
42.18,479
42.19,499
42.2,483
42.21,499
42.22,523
42.23,492
42.24,505
42.25,479
42.26,483
42.27,481
42.28,491
42.29,492
42.3,486
42.31,484
42.32,472
42.33,533
42.34,654
42.35,646
42.36,515
42.37,392
42.38,370
42.39,429
42.4,463
42.41,480
42.42,523
42.43,519
42.44,526
42.45,516
42.46,533
42.47,540
42.48,541
42.49,565
42.5,582
42.51,579
42.52,590
42.53,564
42.54,552
42.55,549
42.56,510
42.57,520
42.58,513
42.59,499
42.6,486
42.61,480
42.62,475
42.63,489
42.64,475
42.65,483
42.66,487
42.67,492
42.68,483
42.69,508
42.7,487
42.71,471
42.72,489
42.73,512
42.74,520
42.75,494
42.76,483
42.77,470
42.78,492
42.79,470
42.8,473
42.81,511
42.82,483
42.83,464
42.84,534
42.85,662
42.86,680
42.87,554
42.88,384
42.89,354
42.9,423
42.91,443
42.92,487
42.93,498
42.94,512
42.95,532
42.96,524
42.97,539
42.98,511
42.99,529
43,558
43.01,563
43.02,582
43.03,601
43.04,590
43.05,577
43.06,545
43.07,522
43.08,539
43.09,496
43.1,480
43.11,503
43.12,493
43.13,488
43.14,481
43.15,466
43.16,476
43.17,492
43.18,455
43.19,482
43.2,485
43.21,490
43.22,502
43.23,484
43.24,486
43.25,500
43.26,503
43.27,513
43.28,479
43.29,472
43.3,480
43.31,486
43.32,469
43.33,490
43.34,489
43.35,461
43.36,464
43.37,589
43.38,714
43.39,656
43.4,493
43.41,361
43.42,366
43.43,425
43.44,462
43.45,480
43.46,499
43.47,509
43.48,519
43.49,520
43.5,532
43.51,529
43.52,541
43.53,575
43.54,584
43.55,573
43.56,579
43.57,567
43.58,538
43.59,555
43.6,532
43.61,498
43.62,490
43.63,484
43.64,480
43.65,464
43.66,481
43.67,491
43.68,458
43.69,475
43.7,465
43.71,468
43.72,474
43.73,477
43.74,491
43.75,488
43.76,501
43.77,496
43.78,500
43.79,481
43.8,511
43.81,478
43.82,475
43.83,482
43.84,486
43.85,494
43.86,513
43.87,487
43.88,455
43.89,484
43.9,628
43.91,687
43.92,576
43.93,408
43.94,392
43.95,409
43.96,425
43.97,464
43.98,487
43.99,507
44,536
44.01,527
44.02,520
44.03,529
44.04,534
44.05,563
44.06,580
44.07,606
44.08,594
44.09,568
44.1,562
44.11,544
44.12,512
44.13,498
44.14,508
44.15,511
44.16,475
44.17,481
44.18,466
44.19,476
44.2,461
44.21,480
44.22,490
44.23,483
44.24,494
44.25,492
44.26,496
44.27,456
44.28,488
44.29,510
44.3,499
44.31,500
44.32,487
44.33,487
44.34,472
44.35,467
44.36,505
44.37,487
44.38,487
44.39,455
44.4,473
44.41,609
44.42,728
44.43,622
44.44,433
44.45,364
44.46,391
44.47,449
44.48,456
44.49,503
44.5,519
44.51,526
44.52,525
44.53,493
44.54,555
44.55,550
44.56,572
44.57,574
44.58,568
44.59,604
44.6,584
44.61,569
44.62,563
44.63,541
44.64,504
44.65,515
44.66,497
44.67,486
44.68,486
44.69,470
44.7,492
44.71,465
44.72,493
44.73,475
44.74,500
44.75,484
44.76,479
44.77,499
44.78,482
44.79,492
44.8,497
44.81,493
44.82,495
44.83,519
44.84,486
44.85,458
44.86,487
44.87,499
44.88,484
44.89,511
44.9,496
44.91,452
44.92,475
44.93,620
44.94,744
44.95,628
44.96,440
44.97,347
44.98,370
44.99,451
45,473
45.01,495
45.02,504
45.03,519
45.04,509
45.05,524
45.06,538
45.07,539
45.08,551
45.09,586
45.1,583
45.11,584
45.12,579
45.13,571
45.14,559
45.15,543
45.16,511
45.17,504
45.18,488
45.19,474
45.2,487
45.21,483
45.22,474
45.23,473
45.24,469
45.25,469
45.26,472
45.27,472
45.28,484
45.29,476
45.3,484
45.31,491
45.32,466
45.33,488
45.34,513
45.35,504
45.36,500
45.37,497
45.38,492
45.39,483
45.4,479
45.41,469
45.42,504
45.43,492
45.44,471
45.45,472
45.46,546
45.47,737
45.48,678
45.49,504
45.5,364
45.51,380
45.52,415
45.53,451
45.54,473
45.55,504
45.56,493
45.57,513
45.58,519
45.59,524
45.6,535
45.61,564
45.62,561
45.63,560
45.64,584
45.65,578
45.66,568
45.67,554
45.68,554
45.69,522
45.7,531
45.71,498
45.72,488
45.73,464
45.74,471
45.75,474
45.76,467
45.77,475
45.78,483
45.79,468
45.8,475
45.81,487
45.82,475
45.83,485
45.84,498
45.85,488
45.86,502
45.87,510
45.88,495
45.89,490
45.9,487
45.91,480
45.92,477
45.93,488
45.94,499
45.95,474
45.96,476
45.97,473
45.98,539
45.99,664
46,655
46.01,497
46.02,384
46.03,413
46.04,412
46.05,443
46.06,494
46.07,483
46.08,517
46.09,526
46.1,531
46.11,525
46.12,545
46.13,548
46.14,559
46.15,572
46.16,580
46.17,587
46.18,568
46.19,580
46.2,532
46.21,518
46.22,519
46.23,503
46.24,495
46.25,486
46.26,485
46.27,486
46.28,488
46.29,487
46.3,485
46.31,466
46.32,492
46.33,482
46.34,485
46.35,480
46.36,489
46.37,505
46.38,505
46.39,507
46.4,507
46.41,484
46.42,493
46.43,467
46.44,495
46.45,457
46.46,510
46.47,508
46.48,476
46.49,477
46.5,537
46.51,652
46.52,664
46.53,529
46.54,390
46.55,358
46.56,419
46.57,458
46.58,491
46.59,511
46.6,511
46.61,519
46.62,529
46.63,529
46.64,540
46.65,547
46.66,556
46.67,562
46.68,583
46.69,584
46.7,587
46.71,552
46.72,540
46.73,531
46.74,531
46.75,495
46.76,492
46.77,470
46.78,473
46.79,488
46.8,483
46.81,488
46.82,476
46.83,496
46.84,473
46.85,484
46.86,481
46.87,470
46.88,497
46.89,505
46.9,500
46.91,505
46.92,494
46.93,500
46.94,491
46.95,492
46.96,484
46.97,485
46.98,492
46.99,482
47,498
47.01,493
47.02,451
47.03,513
47.04,662
47.05,704
47.06,599
47.07,392
47.08,350
47.09,404
47.1,446
47.11,487
47.12,472
47.13,504
47.14,527
47.15,504
47.16,519
47.17,546
47.18,547
47.19,561
47.2,562
47.21,579
47.22,595
47.23,571
47.24,582
47.25,554
47.26,528
47.27,519
47.28,486
47.29,488
47.3,485
47.31,486
47.32,467
47.33,472
47.34,462
47.35,465
47.36,463
47.37,465
47.38,472
47.39,491
47.4,478
47.41,485
47.42,498
47.43,487
47.44,484
47.45,512
47.46,502
47.47,497
47.48,473
47.49,475
47.5,493
47.51,493
47.52,487
47.53,495
47.54,490
47.55,470
47.56,505
47.57,600
47.58,675
47.59,606
47.6,436
47.61,363
47.62,404
47.63,434
47.64,449
47.65,505
47.66,504
47.67,511
47.68,511
47.69,524
47.7,542
47.71,556
47.72,547
47.73,573
47.74,586
47.75,583
47.76,594
47.77,562
47.78,539
47.79,563
47.8,492
47.81,519
47.82,490
47.83,484
47.84,482
47.85,472
47.86,472
47.87,478
47.88,475
47.89,467
47.9,473
47.91,484
47.92,492
47.93,485
47.94,473
47.95,482
47.96,483
47.97,505
47.98,500
47.99,497
48,480
48.01,471
48.02,487
48.03,490
48.04,489
48.05,496
48.06,463
48.07,466
48.08,535
48.09,670
48.1,663
48.11,500
48.12,366
48.13,386
48.14,417
48.15,463
48.16,481
48.17,489
48.18,519
48.19,516
48.2,539
48.21,527
48.22,543
48.23,556
48.24,554
48.25,586
48.26,573
48.27,590
48.28,575
48.29,572
48.3,525
48.31,527
48.32,516
48.33,513
48.34,476
48.35,488
48.36,495
48.37,487
48.38,480
48.39,489
48.4,486
48.41,461
48.42,483
48.43,491
48.44,495
48.45,481
48.46,481
48.47,491
48.48,499
48.49,511
48.5,501
48.51,485
48.52,478
48.53,483
48.54,500
48.55,487
48.56,494
48.57,493
48.58,475
48.59,489
48.6,610
48.61,705
48.62,605
48.63,443
48.64,343
48.65,416
48.66,447
48.67,457
48.68,503
48.69,519
48.7,516
48.71,510
48.72,522
48.73,540
48.74,526
48.75,540
48.76,561
48.77,574
48.78,584
48.79,571
48.8,567
48.81,565
48.82,532
48.83,517
48.84,492
48.85,512
48.86,500
48.87,480
48.88,476
48.89,483
48.9,476
48.91,444
48.92,479
48.93,479
48.94,468
48.95,504
48.96,466
48.97,477
48.98,498
48.99,515
49,499
49.01,477
49.02,506
49.03,486
49.04,470
49.05,471
49.06,450
49.07,495
49.08,483
49.09,496
49.1,482
49.11,479
49.12,489
49.13,647
49.14,689
49.15,592
49.16,400
49.17,357
49.18,404
49.19,456
49.2,467
49.21,518
49.22,488
49.23,520
49.24,529
49.25,526
49.26,527
49.27,561
49.28,545
49.29,561
49.3,578
49.31,601
49.32,604
49.33,578
49.34,556
49.35,542
49.36,522
49.37,515
49.38,487
49.39,491
49.4,481
49.41,450
49.42,471
49.43,495
49.44,462
49.45,473
49.46,479
49.47,467
49.48,460
49.49,503
49.5,493
49.51,499
49.52,491
49.53,480
49.54,518
49.55,500
49.56,476
49.57,480
49.58,481
49.59,487
49.6,478
49.61,500
49.62,494
49.63,472
49.64,452
49.65,527
49.66,630
49.67,688
49.68,547
49.69,421
49.7,382
49.71,417
49.72,439
49.73,462
49.74,509
49.75,527
49.76,511
49.77,541
49.78,536
49.79,543
49.8,549
49.81,569
49.82,565
49.83,573
49.84,579
49.85,598
49.86,564
49.87,551
49.88,539
49.89,520
49.9,493
49.91,480
49.92,487
49.93,477
49.94,470
49.95,480
49.96,465
49.97,475
49.98,467
49.99,474
50,465
50.01,476
50.02,494
50.03,493
50.04,481
50.05,494
50.06,502
50.07,480
50.08,466
50.09,491
50.1,489
50.11,486
50.12,480
50.13,485
50.14,490
50.15,469
50.16,464
50.17,617
50.18,684
50.19,611
50.2,423
50.21,361
50.22,396
50.23,436
50.24,463
50.25,494
50.26,515
50.27,497
50.28,537
50.29,522
50.3,556
50.31,542
50.32,578
50.33,569
50.34,597
50.35,600
50.36,590
50.37,554
50.38,567
50.39,550
50.4,500
50.41,507
50.42,501
50.43,490
50.44,479
50.45,485
50.46,487
50.47,475
50.48,480
50.49,463
50.5,490
50.51,478
50.52,478
50.53,478
50.54,498
50.55,489
50.56,480
50.57,522
50.58,503
50.59,483
50.6,467
50.61,485
50.62,464
50.63,468
50.64,497
50.65,509
50.66,469
50.67,481
50.68,555
50.69,696
50.7,624
50.71,494
50.72,339
50.73,386
50.74,424
50.75,469
50.76,479
50.77,513
50.78,486
50.79,527
50.8,529
50.81,542
50.82,527
50.83,517
50.84,567
50.85,531
50.86,537
50.87,652
50.88,472
50.89,631
50.9,564
50.91,485
50.92,502
50.93,504
50.94,494
50.95,475
50.96,483
50.97,485
50.98,515
50.99,489
51,457
51.01,413
51.02,519
51.03,512
51.04,508
51.05,442
51.06,506
51.07,464
51.08,524
51.09,490
51.1,504
51.11,477
51.12,490
51.13,486
51.14,498
51.15,468
51.16,490
51.17,481
51.18,495
51.19,462
51.2,505
51.21,641
51.22,733
51.23,626
51.24,395
51.25,338
51.26,375
51.27,438
51.28,487
51.29,477
51.3,527
51.31,508
51.32,508
51.33,558
51.34,494
51.35,515
51.36,582
51.37,546
51.38,579
51.39,600
51.4,598
51.41,565
51.42,556
51.43,540
51.44,532
51.45,478
51.46,468
51.47,472
51.48,478
51.49,469
51.5,454
51.51,451
51.52,510
51.53,470
51.54,433
51.55,443
51.56,500
51.57,483
51.58,471
51.59,545
51.6,480
51.61,487
51.62,523
51.63,491
51.64,468
51.65,511
51.66,470
51.67,504
51.68,479
51.69,464
51.7,504
51.71,454
51.72,473
51.73,603
51.74,715
51.75,613
51.76,409
51.77,363
51.78,427
51.79,419
51.8,492
51.81,483
51.82,541
51.83,507
51.84,524
51.85,476
51.86,569
51.87,554
51.88,537
51.89,577
51.9,570
51.91,600
51.92,603
51.93,570
51.94,533
51.95,523
51.96,521
51.97,519
51.98,463
51.99,484
52,469
52.01,496
52.02,473
52.03,471
52.04,520
52.05,452
52.06,506
52.07,501
52.08,473
52.09,476
52.1,512
52.11,508
52.12,502
52.13,517
52.14,490
52.15,491
52.16,466
52.17,452
52.18,523
52.19,497
52.2,511
52.21,484
52.22,476
52.23,475
52.24,593
52.25,689
52.26,595
52.27,452
52.28,408
52.29,361
52.3,437
52.31,487
52.32,508
52.33,516
52.34,510
52.35,535
52.36,537
52.37,533
52.38,523
52.39,588
52.4,576
52.41,583
52.42,577
52.43,584
52.44,578
52.45,557
52.46,521
52.47,532
52.48,510
52.49,490
52.5,506
52.51,494
52.52,454
52.53,492
52.54,467
52.55,487
52.56,500
52.57,503
52.58,486
52.59,452
52.6,523
52.61,473
52.62,499
52.63,498
52.64,508
52.65,507
52.66,458
52.67,457
52.68,475
52.69,479
52.7,510
52.71,484
52.72,494
52.73,457
52.74,494
52.75,595
52.76,663
52.77,612
52.78,446
52.79,374
52.8,392
52.81,452
52.82,468
52.83,523
52.84,511
52.85,515
52.86,497
52.87,515
52.88,527
52.89,544
52.9,569
52.91,565
52.92,576
52.93,571
52.94,551
52.95,571
52.96,570
52.97,548
52.98,514
52.99,511
53,493
53.01,489
53.02,487
53.03,500
53.04,466
53.05,480
53.06,490
53.07,520
53.08,484
53.09,473
53.1,487
53.11,488
53.12,477
53.13,471
53.14,511
53.15,508
53.16,511
53.17,503
53.18,458
53.19,486
53.2,478
53.21,491
53.22,500
53.23,476
53.24,483
53.25,465
53.26,494
53.27,583
53.28,723
53.29,632
53.3,421
53.31,377
53.32,403
53.33,440
53.34,462
53.35,512
53.36,506
53.37,489
53.38,528
53.39,545
53.4,536
53.41,540
53.42,580
53.43,564
53.44,567
53.45,610
53.46,597
53.47,574
53.48,586
53.49,540
53.5,510
53.51,513
53.52,489
53.53,449
53.54,504
53.55,467
53.56,484
53.57,481
53.58,466
53.59,476
53.6,454
53.61,478
53.62,478
53.63,468
53.64,464
53.65,475
53.66,503
53.67,489
53.68,499
53.69,500
53.7,475
53.71,457
53.72,468
53.73,472
53.74,495
53.75,487
53.76,494
53.77,503
53.78,455
53.79,506
53.8,592
53.81,668
53.82,620
53.83,426
53.84,394
53.85,408
53.86,443
53.87,458
53.88,501
53.89,466
53.9,500
53.91,537
53.92,540
53.93,535
53.94,545
53.95,534
53.96,566
53.97,581
53.98,581
53.99,587
54,580
54.01,569
54.02,512
54.03,520
54.04,507
54.05,504
54.06,480
54.07,487
54.08,458
54.09,481
54.1,475
54.11,490
54.12,476
54.13,469
54.14,456
54.15,506
54.16,450
54.17,499
54.18,506
54.19,472
54.2,502
54.21,502
54.22,490
54.23,499
54.24,469
54.25,474
54.26,485
54.27,490
54.28,496
54.29,508
54.3,452
54.31,503
54.32,592
54.33,628
54.34,603
54.35,450
54.36,390
54.37,406
54.38,440
54.39,464
54.4,476
54.41,518
54.42,515
54.43,542
54.44,543
54.45,543
54.46,518
54.47,554
54.48,566
54.49,591
54.5,580
54.51,575
54.52,565
54.53,553
54.54,540
54.55,532
54.56,488
54.57,475
54.58,504
54.59,468
54.6,492
54.61,472
54.62,469
54.63,486
54.64,496
54.65,480
54.66,473
54.67,470
54.68,474
54.69,483
54.7,512
54.71,464
54.72,474
54.73,509
54.74,510
54.75,480
54.76,472
54.77,468
54.78,445
54.79,507
54.8,499
54.81,484
54.82,474
54.83,501
54.84,620
54.85,637
54.86,513
54.87,414
54.88,372
54.89,431
54.9,456
54.91,477
54.92,511
54.93,524
54.94,512
54.95,536
54.96,521
54.97,540
54.98,542
54.99,551
55,560
55.01,578
55.02,590
55.03,571
55.04,551
55.05,552
55.06,516
55.07,530
55.08,494
55.09,488
55.1,499
55.11,488
55.12,479
55.13,482
55.14,500
55.15,473
55.16,491
55.17,489
55.18,480
55.19,479
55.2,475
55.21,488
55.22,510
55.23,501
55.24,495
55.25,516
55.26,507
55.27,500
55.28,473
55.29,487
55.3,500
55.31,487
55.32,505
55.33,500
55.34,499
55.35,463
55.36,480
55.37,590
55.38,707
55.39,566
55.4,459
55.41,379
55.42,393
55.43,440
55.44,480
55.45,503
55.46,504
55.47,520
55.48,536
55.49,528
55.5,518
55.51,544
55.52,565
55.53,549
55.54,568
55.55,606
55.56,574
55.57,570
55.58,552
55.59,525
55.6,521
55.61,498
55.62,488
55.63,495
55.64,496
55.65,491
55.66,463
55.67,482
55.68,477
55.69,455
55.7,478
55.71,506
55.72,485
55.73,483
55.74,470
55.75,503
55.76,486
55.77,472
55.78,471
55.79,503
55.8,529
55.81,514
55.82,490
55.83,485
55.84,487
55.85,451
55.86,493
55.87,497
55.88,496
55.89,474
55.9,501
55.91,604
55.92,704
55.93,589
55.94,399
55.95,347
55.96,408
55.97,464
55.98,487
55.99,510
56,506
56.01,523
56.02,543
56.03,525
56.04,519
56.05,556
56.06,548
56.07,552
56.08,596
56.09,605
56.1,595
56.11,571
56.12,579
56.13,561
56.14,526
56.15,508
56.16,477
56.17,478
56.18,463
56.19,471
56.2,476
56.21,446
56.22,501
56.23,473
56.24,489
56.25,462
56.26,464
56.27,483
56.28,485
56.29,473
56.3,488
56.31,507
56.32,494
56.33,500
56.34,504
56.35,499
56.36,484
56.37,478
56.38,471
56.39,468
56.4,484
56.41,470
56.42,506
56.43,475
56.44,452
56.45,540
56.46,668
56.47,691
56.48,504
56.49,363
56.5,380
56.51,427
56.52,455
56.53,490
56.54,511
56.55,502
56.56,504
56.57,528
56.58,532
56.59,552
56.6,560
56.61,567
56.62,575
56.63,582
56.64,598
56.65,581
56.66,568
56.67,564
56.68,504
56.69,515
56.7,512
56.71,489
56.72,498
56.73,484
56.74,450
56.75,485
56.76,457
56.77,481
56.78,464
56.79,483
56.8,475
56.81,497
56.82,507
56.83,504
56.84,488
56.85,468
56.86,470
56.87,495
56.88,516
56.89,494
56.9,486
56.91,481
56.92,483
56.93,500
56.94,479
56.95,471
56.96,478
56.97,493
56.98,542
56.99,649
57,628
57.01,463
57.02,366
57.03,424
57.04,428
57.05,476
57.06,473
57.07,496
57.08,527
57.09,543
57.1,528
57.11,516
57.12,543
57.13,580
57.14,583
57.15,578
57.16,602
57.17,615
57.18,579
57.19,556
57.2,535
57.21,525
57.22,505
57.23,492
57.24,454
57.25,504
57.26,476
57.27,487
57.28,470
57.29,475
57.3,476
57.31,478
57.32,479
57.33,479
57.34,467
57.35,496
57.36,503
57.37,503
57.38,473
57.39,507
57.4,518
57.41,483
57.42,494
57.43,469
57.44,501
57.45,481
57.46,451
57.47,506
57.48,471
57.49,473
57.5,543
57.51,668
57.52,664
57.53,526
57.54,388
57.55,395
57.56,413
57.57,453
57.58,487
57.59,506
57.6,515
57.61,519
57.62,516
57.63,523
57.64,531
57.65,528
57.66,573
57.67,561
57.68,583
57.69,579
57.7,569
57.71,585
57.72,543
57.73,528
57.74,512
57.75,494
57.76,487
57.77,499
57.78,476
57.79,482
57.8,480
57.81,479
57.82,484
57.83,472
57.84,467
57.85,461
57.86,467
57.87,495
57.88,487
57.89,489
57.9,501
57.91,493
57.92,492
57.93,495
57.94,491
57.95,472
57.96,493
57.97,496
57.98,474
57.99,478
58,477
58.01,479
58.02,516
58.03,623
58.04,710
58.05,592
58.06,411
58.07,370
58.08,391
58.09,440
58.1,471
58.11,492
58.12,502
58.13,534
58.14,514
58.15,531
58.16,543
58.17,540
58.18,563
58.19,573
58.2,574
58.21,596
58.22,563
58.23,583
58.24,559
58.25,530
58.26,505
58.27,517
58.28,497
58.29,493
58.3,473
58.31,478
58.32,482
58.33,476
58.34,482
58.35,477
58.36,470
58.37,463
58.38,459
58.39,483
58.4,509
58.41,494
58.42,475
58.43,484
58.44,530
58.45,487
58.46,519
58.47,470
58.48,472
58.49,463
58.5,480
58.51,494
58.52,492
58.53,455
58.54,475
58.55,509
58.56,653
58.57,735
58.58,593
58.59,387
58.6,345
58.61,376
58.62,449
58.63,477
58.64,478
58.65,508
58.66,512
58.67,519
58.68,517
58.69,547
58.7,548
58.71,548
58.72,583
58.73,577
58.74,607
58.75,591
58.76,551
58.77,569
58.78,559
58.79,516
58.8,492
58.81,483
58.82,501
58.83,474
58.84,466
58.85,469
58.86,481
58.87,480
58.88,469
58.89,457
58.9,456
58.91,488
58.92,480
58.93,487
58.94,498
58.95,486
58.96,495
58.97,509
58.98,480
58.99,488
59,468
59.01,476
59.02,481
59.03,491
59.04,495
59.05,463
59.06,458
59.07,511
59.08,622
59.09,699
59.1,595
59.11,414
59.12,369
59.13,394
59.14,439
59.15,451
59.16,477
59.17,536
59.18,515
59.19,521
59.2,531
59.21,550
59.22,536
59.23,556
59.24,560
59.25,601
59.26,608
59.27,586
59.28,549
59.29,566
59.3,551
59.31,504
59.32,496
59.33,487
59.34,465
59.35,467
59.36,478
59.37,465
59.38,458
59.39,472
59.4,458
59.41,484
59.42,477
59.43,490
59.44,477
59.45,481
59.46,475
59.47,502
59.48,491
59.49,463
59.5,493
59.51,487
59.52,464
59.53,491
59.54,485
59.55,477
59.56,460
59.57,481
59.58,547
59.59,707
59.6,651
59.61,470
59.62,359
59.63,396
59.64,412
59.65,435
59.66,492
59.67,510
59.68,537
59.69,520
59.7,522
59.71,538
59.72,538
59.73,549
59.74,549
59.75,586
59.76,570
59.77,597
59.78,592
59.79,567
59.8,539
59.81,527
59.82,505
59.83,494
59.84,471
59.85,480
59.86,487
59.87,469
59.88,471
59.89,463
59.9,477
59.91,492
59.92,475
59.93,491
59.94,481
59.95,473
59.96,471
59.97,506
59.98,487
59.99,494
60,489
60.01,430
60.02,457
60.03,499
60.04,479
60.05,476
60.06,470
60.07,455
60.08,515
60.09,695
60.1,713
60.11,568
60.12,369
60.13,335
60.14,419
60.15,456
60.16,484
60.17,472
60.18,519
60.19,504
60.2,494
60.21,531
60.22,529
60.23,540
60.24,545
60.25,592
60.26,579
60.27,587
60.28,570
60.29,585
60.3,549
60.31,533
60.32,497
60.33,503
60.34,490
60.35,471
60.36,480
60.37,455
60.38,464
60.39,456
60.4,477
60.41,471
60.42,431
60.43,480
60.44,472
60.45,491
60.46,482
60.47,457
60.48,493
60.49,516
60.5,487
60.51,495
60.52,462
60.53,468
60.54,485
60.55,506
60.56,465
60.57,448
60.58,476
60.59,484
60.6,551
60.61,719
60.62,628
60.63,524
60.64,369
60.65,353
60.66,412
60.67,453
60.68,489
60.69,506
60.7,517
60.71,479
60.72,512
60.73,537
60.74,545
60.75,524
60.76,552
60.77,586
60.78,594
60.79,564
60.8,550
60.81,589
60.82,544
60.83,544
60.84,488
60.85,497
60.86,489
60.87,496
60.88,434
60.89,524
60.9,519
60.91,463
60.92,456
60.93,511
60.94,495
60.95,493
60.96,487
60.97,508
60.98,505
60.99,502
61,536
61.01,461
61.02,502
61.03,460
61.04,539
61.05,478
61.06,478
61.07,471
61.08,460
61.09,476
61.1,490
61.11,561
61.12,719
61.13,589
61.14,490
61.15,395
61.16,358
61.17,485
61.18,487
61.19,481
61.2,521
61.21,521
61.22,528
61.23,548
61.24,529
61.25,551
61.26,510
61.27,601
61.28,570
61.29,571
61.3,599
61.31,583
61.32,587
61.33,561
61.34,512
61.35,499
61.36,510
61.37,520
61.38,486
61.39,458
61.4,491
61.41,525
61.42,472
61.43,446
61.44,487
61.45,506
61.46,513
61.47,488
61.48,492
61.49,487
61.5,461
61.51,530
61.52,499
61.53,500
61.54,457
61.55,481
61.56,489
61.57,464
61.58,473
61.59,505
61.6,496
61.61,445
61.62,506
61.63,643
61.64,765
61.65,544
61.66,402
61.67,325
61.68,442
61.69,439
61.7,480
61.71,467
61.72,525
61.73,509
61.74,532
61.75,496
61.76,519
61.77,558
61.78,604
61.79,528
61.8,587
61.81,611
61.82,575
61.83,584
61.84,534
61.85,551
61.86,528
61.87,468
61.88,519
61.89,466
61.9,486
61.91,495
61.92,458
61.93,475
61.94,462
61.95,514
61.96,449
61.97,489
61.98,492
61.99,463
62,489
62.01,482
62.02,504
62.03,503
62.04,499
62.05,497
62.06,498
62.07,460
62.08,470
62.09,489
62.1,527
62.11,479
62.12,491
62.13,482
62.14,420
62.15,601
62.16,695
62.17,755
62.18,477
62.19,385
62.2,332
62.21,394
62.22,477
62.23,457
62.24,529
62.25,512
62.26,500
62.27,511
62.28,531
62.29,492
62.3,577
62.31,584
62.32,539
62.33,597
62.34,552
62.35,607
62.36,576
62.37,543
62.38,543
62.39,471
62.4,529
62.41,488
62.42,476
62.43,478
62.44,439
62.45,520
62.46,479
62.47,499
62.48,449
62.49,479
62.5,510
62.51,454
62.52,489
62.53,509
62.54,469
62.55,496
62.56,492
62.57,545
62.58,489
62.59,499
62.6,470
62.61,476
62.62,510
62.63,504
62.64,476
62.65,484
62.66,423
62.67,548
62.68,577
62.69,724
62.7,601
62.71,449
62.72,347
62.73,416
62.74,443
62.75,479
62.76,508
62.77,488
62.78,527
62.79,484
62.8,539
62.81,531
62.82,581
62.83,543
62.84,555
62.85,583
62.86,568
62.87,580
62.88,573
62.89,551
62.9,549
62.91,482
62.92,528
62.93,484
62.94,501
62.95,474
62.96,488
62.97,474
62.98,482
62.99,492
63,462
63.01,500
63.02,487
63.03,478
63.04,486
63.05,505
63.06,511
63.07,487
63.08,489
63.09,480
63.1,508
63.11,519
63.12,485
63.13,467
63.14,492
63.15,488
63.16,486
63.17,483
63.18,477
63.19,507
63.2,533
63.21,687
63.22,623
63.23,476
63.24,402
63.25,371
63.26,436
63.27,462
63.28,462
63.29,529
63.3,522
63.31,510
63.32,515
63.33,513
63.34,552
63.35,560
63.36,551
63.37,595
63.38,544
63.39,576
63.4,593
63.41,577
63.42,507
63.43,536
63.44,507
63.45,512
63.46,485
63.47,483
63.48,504
63.49,467
63.5,474
63.51,499
63.52,448
63.53,502
63.54,472
63.55,474
63.56,495
63.57,482
63.58,494
63.59,465
63.6,503
63.61,507
63.62,517
63.63,476
63.64,486
63.65,484
63.66,453
63.67,479
63.68,505
63.69,493
63.7,440
63.71,497
63.72,480
63.73,544
63.74,678
63.75,667
63.76,485
63.77,359
63.78,360
63.79,455
63.8,480
63.81,489
63.82,491
63.83,511
63.84,511
63.85,529
63.86,508
63.87,546
63.88,546
63.89,565
63.9,574
63.91,585
63.92,603
63.93,590
63.94,563
63.95,538
63.96,532
63.97,519
63.98,519
63.99,488
64,476
64.01,487
64.02,496
64.03,472
64.04,476
64.05,453
64.06,471
64.07,476
64.08,478
64.09,500
64.1,495
64.11,479
64.12,484
64.13,483
64.14,519
64.15,502
64.16,491
64.17,494
64.18,527
64.19,470
64.2,508
64.21,487
64.22,475
64.23,489
64.24,486
64.25,497
64.26,499
64.27,418
64.28,577
64.29,684
64.3,706
64.31,556
64.32,356
64.33,369
64.34,397
64.35,450
64.36,490
64.37,492
64.38,509
64.39,515
64.4,525
64.41,516
64.42,539
64.43,510
64.44,565
64.45,567
64.46,572
64.47,613
64.48,591
64.49,575
64.5,542
64.51,546
64.52,537
64.53,471
64.54,510
64.55,488
64.56,478
64.57,470
64.58,489
64.59,493
64.6,464
64.61,454
64.62,482
64.63,465
64.64,454
64.65,504
64.66,490
64.67,473
64.68,472
64.69,492
64.7,472
64.71,507
64.72,514
64.73,512
64.74,510
64.75,515
64.76,459
64.77,466
64.78,472
64.79,478
64.8,513
64.81,478
64.82,495
64.83,475
64.84,513
64.85,617
64.86,742
64.87,582
64.88,422
64.89,364
64.9,388
64.91,423
64.92,451
64.93,521
64.94,498
64.95,507
64.96,523
64.97,536
64.98,551
64.99,546
65,557
65.01,563
65.02,576
65.03,588
65.04,592
65.05,577
65.06,577
65.07,547
65.08,520
65.09,508
65.1,491
65.11,462
65.12,477
65.13,492
65.14,484
65.15,484
65.16,461
65.17,469
65.18,493
65.19,442
65.2,492
65.21,485
65.22,491
65.23,492
65.24,473
65.25,494
65.26,503
65.27,506
65.28,492
65.29,493
65.3,484
65.31,500
65.32,476
65.33,494
65.34,492
65.35,486
65.36,481
65.37,505
65.38,480
65.39,527
65.4,664
65.41,652
65.42,507
65.43,380
65.44,406
65.45,419
65.46,447
65.47,467
65.48,497
65.49,515
65.5,517
65.51,524
65.52,541
65.53,543
65.54,529
65.55,568
65.56,566
65.57,583
65.58,608
65.59,587
65.6,571
65.61,516
65.62,515
65.63,503
65.64,509
65.65,505
65.66,497
65.67,462
65.68,475
65.69,470
65.7,479
65.71,479
65.72,488
65.73,489
65.74,460
65.75,482
65.76,478
65.77,471
65.78,499
65.79,490
65.8,516
65.81,478
65.82,523
65.83,493
65.84,492
65.85,476
65.86,489
65.87,478
65.88,489
65.89,497
65.9,449
65.91,495
65.92,463
65.93,575
65.94,689
65.95,658
65.96,491
65.97,372
65.98,385
65.99,400
66,480
66.01,483
66.02,471
66.03,519
66.04,526
66.05,524
66.06,516
66.07,542
66.08,561
66.09,568
66.1,564
66.11,587
66.12,578
66.13,591
66.14,559
66.15,532
66.16,560
66.17,529
66.18,495
66.19,476
66.2,498
66.21,456
66.22,477
66.23,473
66.24,484
66.25,483
66.26,455
66.27,473
66.28,487
66.29,487
66.3,467
66.31,499
66.32,484
66.33,482
66.34,487
66.35,515
66.36,496
66.37,523
66.38,516
66.39,458
66.4,472
66.41,492
66.42,488
66.43,461
66.44,510
66.45,484
66.46,448
66.47,503
66.48,632
66.49,715
66.5,624
66.51,445
66.52,352
66.53,403
66.54,423
66.55,451
66.56,513
66.57,507
66.58,525
66.59,514
66.6,551
66.61,499
66.62,526
66.63,560
66.64,563
66.65,565
66.66,604
66.67,583
66.68,578
66.69,577
66.7,541
66.71,528
66.72,479
66.73,500
66.74,514
66.75,494
66.76,470
66.77,481
66.78,483
66.79,464
66.8,476
66.81,473
66.82,468
66.83,472
66.84,470
66.85,491
66.86,478
66.87,467
66.88,475
66.89,486
66.9,487
66.91,493
66.92,524
66.93,513
66.94,497
66.95,482
66.96,477
66.97,466
66.98,488
66.99,476
67,497
67.01,476
67.02,470
67.03,545
67.04,687
67.05,714
67.06,541
67.07,357
67.08,382
67.09,413
67.1,433
67.11,475
67.12,502
67.13,514
67.14,504
67.15,512
67.16,513
67.17,530
67.18,550
67.19,562
67.2,574
67.21,602
67.22,600
67.23,599
67.24,554
67.25,556
67.26,543
67.27,519
67.28,511
67.29,507
67.3,485
67.31,473
67.32,469
67.33,441
67.34,474
67.35,470
67.36,487
67.37,478
67.38,460
67.39,456
67.4,502
67.41,454
67.42,484
67.43,507
67.44,485
67.45,476
67.46,500
67.47,509
67.48,528
67.49,492
67.5,500
67.51,486
67.52,479
67.53,475
67.54,461
67.55,526
67.56,504
67.57,461
67.58,476
67.59,625
67.6,674
67.61,625
67.62,449
67.63,392
67.64,411
67.65,412
67.66,462
67.67,489
67.68,509
67.69,497
67.7,537
67.71,538
67.72,507
67.73,559
67.74,554
67.75,539
67.76,606
67.77,592
67.78,588
67.79,582
67.8,553
67.81,519
67.82,536
67.83,515
67.84,488
67.85,495
67.86,468
67.87,461
67.88,470
67.89,459
67.9,486
67.91,478
67.92,480
67.93,478
67.94,465
67.95,485
67.96,487
67.97,484
67.98,479
67.99,492
68,482
68.01,504
68.02,496
68.03,487
68.04,496
68.05,459
68.06,482
68.07,501
68.08,504
68.09,490
68.1,481
68.11,457
68.12,524
68.13,648
68.14,653
68.15,549
68.16,414
68.17,372
68.18,407
68.19,428
68.2,471
68.21,504
68.22,521
68.23,525
68.24,513
68.25,539
68.26,531
68.27,542
68.28,546
68.29,593
68.3,578
68.31,594
68.32,599
68.33,577
68.34,538
68.35,542
68.36,497
68.37,532
68.38,500
68.39,480
68.4,482
68.41,490
68.42,459
68.43,470
68.44,507
68.45,479
68.46,491
68.47,473
68.48,466
68.49,487
68.5,483
68.51,476
68.52,488
68.53,487
68.54,503
68.55,509
68.56,502
68.57,462
68.58,479
68.59,467
68.6,466
68.61,497
68.62,494
68.63,481
68.64,495
68.65,480
68.66,575
68.67,715
68.68,636
68.69,487
68.7,359
68.71,394
68.72,420
68.73,467
68.74,489
68.75,498
68.76,486
68.77,539
68.78,519
68.79,535
68.8,542
68.81,548
68.82,534
68.83,558
68.84,597
68.85,579
68.86,578
68.87,563
68.88,568
68.89,530
68.9,505
68.91,503
68.92,485
68.93,473
68.94,465
68.95,480
68.96,480
68.97,486
68.98,502
68.99,441
69,481
69.01,496
69.02,481
69.03,480
69.04,484
69.05,483
69.06,486
69.07,484
69.08,519
69.09,516
69.1,489
69.11,483
69.12,484
69.13,478
69.14,481
69.15,484
69.16,499
69.17,492
69.18,484
69.19,480
69.2,528
69.21,689
69.22,709
69.23,524
69.24,359
69.25,373
69.26,413
69.27,429
69.28,479
69.29,513
69.3,513
69.31,521
69.32,534
69.33,526
69.34,529
69.35,529
69.36,572
69.37,556
69.38,585
69.39,595
69.4,584
69.41,571
69.42,548
69.43,529
69.44,541
69.45,508
69.46,488
69.47,494
69.48,467
69.49,469
69.5,477
69.51,457
69.52,474
69.53,477
69.54,471
69.55,472
69.56,469
69.57,450
69.58,491
69.59,487
69.6,492
69.61,495
69.62,487
69.63,511
69.64,511
69.65,497
69.66,491
69.67,474
69.68,477
69.69,499
69.7,486
69.71,484
69.72,480
69.73,483
69.74,481
69.75,581
69.76,739
69.77,667
69.78,480
69.79,378
69.8,368
69.81,441
69.82,440
69.83,487
69.84,496
69.85,532
69.86,527
69.87,510
69.88,531
69.89,532
69.9,541
69.91,562
69.92,588
69.93,606
69.94,598
69.95,580
69.96,583
69.97,537
69.98,512
69.99,501
70,494
70.01,483
70.02,498
70.03,482
70.04,470
70.05,452
70.06,470
70.07,478
70.08,481
70.09,462
70.1,474
70.11,476
70.12,476
70.13,480
70.14,490
70.15,487
70.16,504
70.17,506
70.18,489
70.19,487
70.2,463
70.21,480
70.22,482
70.23,483
70.24,494
70.25,495
70.26,481
70.27,450
70.28,575
70.29,677
70.3,651
70.31,478
70.32,399
70.33,384
70.34,408
70.35,457
70.36,490
70.37,500
70.38,486
70.39,522
70.4,537
70.41,515
70.42,547
70.43,563
70.44,572
70.45,562
70.46,577
70.47,579
70.48,590
70.49,556
70.5,534
70.51,544
70.52,510
70.53,489
70.54,486
70.55,483
70.56,487
70.57,460
70.58,479
70.59,479
70.6,478
70.61,479
70.62,467
70.63,462
70.64,487
70.65,497
70.66,488
70.67,484
70.68,487
70.69,488
70.7,495
70.71,501
70.72,495
70.73,468
70.74,497
70.75,481
70.76,471
70.77,488
70.78,492
70.79,473
70.8,468
70.81,572
70.82,707
70.83,670
70.84,502
70.85,349
70.86,369
70.87,435
70.88,450
70.89,472
70.9,513
70.91,508
70.92,514
70.93,517
70.94,505
70.95,560
70.96,546
70.97,556
70.98,562
70.99,565
71,594
71.01,589
71.02,542
71.03,566
71.04,536
71.05,517
71.06,509
71.07,491
71.08,483
71.09,478
71.1,485
71.11,464
71.12,469
71.13,482
71.14,472
71.15,463
71.16,482
71.17,462
71.18,486
71.19,494
71.2,482
71.21,477
71.22,495
71.23,494
71.24,521
71.25,507
71.26,475
71.27,476
71.28,491
71.29,457
71.3,480
71.31,500
71.32,496
71.33,453
71.34,480
71.35,595
71.36,716
71.37,678
71.38,479
71.39,362
71.4,374
71.41,412
71.42,458
71.43,490
71.44,494
71.45,521
71.46,516
71.47,519
71.48,537
71.49,521
71.5,553
71.51,540
71.52,583
71.53,588
71.54,579
71.55,576
71.56,582
71.57,562
71.58,508
71.59,526
71.6,518
71.61,487
71.62,485
71.63,486
71.64,479
71.65,451
71.66,470
71.67,487
71.68,458
71.69,463
71.7,468
71.71,499
71.72,489
71.73,457
71.74,487
71.75,502
71.76,490
71.77,484
71.78,516
71.79,530
71.8,467
71.81,490
71.82,488
71.83,491
71.84,479
71.85,487
71.86,483
71.87,476
71.88,492
71.89,519
71.9,660
71.91,710
71.92,541
71.93,378
71.94,369
71.95,420
71.96,431
71.97,473
71.98,493
71.99,537
72,515
72.01,523
72.02,509
72.03,545
72.04,542
72.05,550
72.06,587
72.07,603
72.08,591
72.09,588
72.1,562
72.11,559
72.12,551
72.13,495
72.14,496
72.15,511
72.16,488
72.17,453
72.18,481
72.19,482
72.2,444
72.21,493
72.22,474
72.23,489
72.24,465
72.25,478
72.26,493
72.27,483
72.28,487
72.29,484
72.3,486
72.31,513
72.32,492
72.33,460
72.34,488
72.35,493
72.36,494
72.37,477
72.38,493
72.39,488
72.4,463
72.41,466
72.42,557
72.43,706
72.44,644
72.45,470
72.46,377
72.47,399
72.48,427
72.49,463
72.5,489
72.51,512
72.52,506
72.53,516
72.54,531
72.55,544
72.56,551
72.57,557
72.58,568
72.59,568
72.6,600
72.61,585
72.62,569
72.63,575
72.64,572
72.65,528
72.66,512
72.67,483
72.68,498
72.69,483
72.7,457
72.71,504
72.72,495
72.73,471
72.74,476
72.75,456
72.76,474
72.77,511
72.78,498
72.79,463
72.8,478
72.81,499
72.82,494
72.83,489
72.84,473
72.85,520
72.86,476
72.87,487
72.88,479
72.89,497
72.9,467
72.91,499
72.92,494
72.93,482
72.94,476
72.95,579
72.96,707
72.97,632
72.98,469
72.99,368
73,372
73.01,446
73.02,453
73.03,487
73.04,521
73.05,508
73.06,518
73.07,519
73.08,515
73.09,558
73.1,536
73.11,555
73.12,543
73.13,547
73.14,603
73.15,576
73.16,585
73.17,539
73.18,522
73.19,501
73.2,492
73.21,515
73.22,479
73.23,486
73.24,500
73.25,467
73.26,479
73.27,484
73.28,485
73.29,476
73.3,493
73.31,473
73.32,485
73.33,498
73.34,496
73.35,500
73.36,474
73.37,494
73.38,521
73.39,504
73.4,467
73.41,460
73.42,461
73.43,542
73.44,481
73.45,472
73.46,475
73.47,486
73.48,502
73.49,590
73.5,760
73.51,671
73.52,455
73.53,380
73.54,371
73.55,423
73.56,453
73.57,473
73.58,486
73.59,542
73.6,510
73.61,539
73.62,532
73.63,535
73.64,563
73.65,556
73.66,580
73.67,584
73.68,609
73.69,591
73.7,541
73.71,558
73.72,509
73.73,540
73.74,471
73.75,498
73.76,462
73.77,465
73.78,483
73.79,470
73.8,439
73.81,484
73.82,481
73.83,485
73.84,452
73.85,496
73.86,455
73.87,480
73.88,501
73.89,504
73.9,489
73.91,482
73.92,474
73.93,496
73.94,533
73.95,488
73.96,507
73.97,480
73.98,485
73.99,484
74,496
74.01,425
74.02,515
74.03,492
74.04,561
74.05,668
74.06,712
74.07,527
74.08,358
74.09,363
74.1,423
74.11,460
74.12,478
74.13,499
74.14,513
74.15,510
74.16,513
74.17,499
74.18,539
74.19,568
74.2,557
74.21,584
74.22,581
74.23,575
74.24,576
74.25,527
74.26,569
74.27,563
74.28,529
74.29,504
74.3,496
74.31,469
74.32,456
74.33,478
74.34,487
74.35,475
74.36,475
74.37,470
74.38,473
74.39,468
74.4,482
74.41,464
74.42,503
74.43,492
74.44,493
74.45,479
74.46,501
74.47,488
74.48,522
74.49,491
74.5,476
74.51,489
74.52,486
74.53,489
74.54,493
74.55,467
74.56,500
74.57,460
74.58,532
74.59,622
74.6,670
74.61,542
74.62,423
74.63,386
74.64,391
74.65,429
74.66,459
74.67,493
74.68,511
74.69,531
74.7,526
74.71,532
74.72,533
74.73,560
74.74,567
74.75,562
74.76,598
74.77,585
74.78,586
74.79,584
74.8,552
74.81,535
74.82,517
74.83,498
74.84,507
74.85,472
74.86,495
74.87,472
74.88,508
74.89,486
74.9,486
74.91,479
74.92,476
74.93,489
74.94,491
74.95,475
74.96,492
74.97,504
74.98,492
74.99,472
75,523
75.01,507
75.02,501
75.03,471
75.04,475
75.05,483
75.06,453
75.07,499
75.08,507
75.09,487
75.1,448
75.11,494
75.12,561
75.13,709
75.14,664
75.15,474
75.16,366
75.17,375
75.18,423
75.19,442
75.2,491
75.21,511
75.22,491
75.23,529
75.24,510
75.25,528
75.26,544
75.27,542
75.28,546
75.29,582
75.3,585
75.31,597
75.32,585
75.33,557
75.34,552
75.35,527
75.36,515
75.37,489
75.38,512
75.39,478
75.4,477
75.41,476
75.42,469
75.43,480
75.44,483
75.45,480
75.46,486
75.47,480
75.48,467
75.49,484
75.5,476
75.51,492
75.52,479
75.53,500
75.54,488
75.55,497
75.56,511
75.57,487
75.58,472
75.59,486
75.6,486
75.61,494
75.62,478
75.63,496
75.64,469
75.65,446
75.66,540
75.67,664
75.68,739
75.69,623
75.7,415
75.71,345
75.72,366
75.73,434
75.74,480
75.75,493
75.76,496
75.77,542
75.78,514
75.79,512
75.8,523
75.81,534
75.82,575
75.83,574
75.84,580
75.85,597
75.86,594
75.87,575
75.88,562
75.89,550
75.9,528
75.91,492
75.92,517
75.93,492
75.94,471
75.95,473
75.96,438
75.97,503
75.98,480
75.99,472
76,461
76.01,457
76.02,460
76.03,482
76.04,448
76.05,504
76.06,492
76.07,472
76.08,481
76.09,498
76.1,472
76.11,514
76.12,509
76.13,506
76.14,481
76.15,472
76.16,481
76.17,504
76.18,478
76.19,504
76.2,481
76.21,477
76.22,521
76.23,638
76.24,713
76.25,604
76.26,433
76.27,351
76.28,405
76.29,445
76.3,448
76.31,503
76.32,507
76.33,512
76.34,516
76.35,533
76.36,528
76.37,535
76.38,560
76.39,566
76.4,564
76.41,604
76.42,583
76.43,592
76.44,569
76.45,526
76.46,520
76.47,486
76.48,476
76.49,487
76.5,488
76.51,488
76.52,476
76.53,478
76.54,467
76.55,467
76.56,462
76.57,469
76.58,487
76.59,491
76.6,468
76.61,504
76.62,473
76.63,481
76.64,499
76.65,490
76.66,496
76.67,510
76.68,490
76.69,500
76.7,482
76.71,486
76.72,487
76.73,473
76.74,518
76.75,478
76.76,446
76.77,546
76.78,689
76.79,669
76.8,510
76.81,393
76.82,395
76.83,424
76.84,462
76.85,444
76.86,505
76.87,517
76.88,524
76.89,523
76.9,534
76.91,553
76.92,533
76.93,571
76.94,572
76.95,578
76.96,607
76.97,585
76.98,577
76.99,551
77,519
77.01,493
77.02,491
77.03,479
77.04,494
77.05,487
77.06,490
77.07,475
77.08,454
77.09,480
77.1,476
77.11,484
77.12,492
77.13,490
77.14,484
77.15,488
77.16,507
77.17,468
77.18,490
77.19,496
77.2,512
77.21,511
77.22,508
77.23,488
77.24,481
77.25,480
77.26,499
77.27,489
77.28,482
77.29,484
77.3,479
77.31,531
77.32,664
77.33,685
77.34,557
77.35,411
77.36,369
77.37,413
77.38,438
77.39,466
77.4,494
77.41,515
77.42,515
77.43,483
77.44,558
77.45,531
77.46,548
77.47,550
77.48,553
77.49,593
77.5,584
77.51,558
77.52,587
77.53,558
77.54,543
77.55,515
77.56,494
77.57,478
77.58,474
77.59,505
77.6,469
77.61,479
77.62,485
77.63,463
77.64,471
77.65,490
77.66,462
77.67,485
77.68,494
77.69,486
77.7,473
77.71,478
77.72,498
77.73,480
77.74,509
77.75,510
77.76,502
77.77,480
77.78,481
77.79,452
77.8,493
77.81,492
77.82,480
77.83,474
77.84,487
77.85,486
77.86,534
77.87,652
77.88,715
77.89,575
77.9,387
77.91,336
77.92,393
77.93,453
77.94,481
77.95,498
77.96,515
77.97,512
77.98,516
77.99,530
78,539
78.01,551
78.02,535
78.03,554
78.04,589
78.05,588
78.06,589
78.07,581
78.08,553
78.09,558
78.1,513
78.11,503
78.12,495
78.13,490
78.14,471
78.15,491
78.16,484
78.17,481
78.18,478
78.19,492
78.2,467
78.21,473
78.22,486
78.23,489
78.24,473
78.25,469
78.26,492
78.27,488
78.28,504
78.29,502
78.3,487
78.31,507
78.32,513
78.33,495
78.34,508
78.35,478
78.36,491
78.37,489
78.38,487
78.39,467
78.4,505
78.41,501
78.42,426
78.43,534
78.44,680
78.45,750
78.46,598
78.47,417
78.48,331
78.49,391
78.5,432
78.51,459
78.52,504
78.53,511
78.54,511
78.55,522
78.56,518
78.57,526
78.58,543
78.59,546
78.6,582
78.61,580
78.62,575
78.63,589
78.64,585
78.65,539
78.66,558
78.67,525
78.68,518
78.69,490
78.7,482
78.71,483
78.72,489
78.73,470
78.74,446
78.75,487
78.76,487
78.77,476
78.78,469
78.79,487
78.8,459
78.81,500
78.82,481
78.83,487
78.84,499
78.85,500
78.86,483
78.87,493
78.88,507
78.89,541
78.9,488
78.91,510
78.92,488
78.93,476
78.94,486
78.95,475
78.96,504
78.97,469
78.98,492
78.99,489
79,507
79.01,636
79.02,705
79.03,596
79.04,437
79.05,360
79.06,408
79.07,448
79.08,472
79.09,492
79.1,500
79.11,530
79.12,522
79.13,524
79.14,508
79.15,551
79.16,571
79.17,538
79.18,598
79.19,598
79.2,588
79.21,585
79.22,549
79.23,557
79.24,532
79.25,487
79.26,486
79.27,486
79.28,473
79.29,487
79.3,465
79.31,478
79.32,465
79.33,484
79.34,484
79.35,473
79.36,485
79.37,483
79.38,475
79.39,473
79.4,484
79.41,482
79.42,485
79.43,480
79.44,535
79.45,507
79.46,497
79.47,478
79.48,479
79.49,484
79.5,486
79.51,505
79.52,492
79.53,493
79.54,473
79.55,518
79.56,627
79.57,679
79.58,563
79.59,424
79.6,377
79.61,399
79.62,445
79.63,466
79.64,497
79.65,501
79.66,522
79.67,519
79.68,521
79.69,519
79.7,557
79.71,559
79.72,555
79.73,579
79.74,590
79.75,575
79.76,591
79.77,562
79.78,545
79.79,511
79.8,524
79.81,496
79.82,482
79.83,457
79.84,466
79.85,483
79.86,470
79.87,455
79.88,483
79.89,500
79.9,487
79.91,460
79.92,460
79.93,498
79.94,471
79.95,489
79.96,472
79.97,491
79.98,494
79.99,520
80,504
80.01,488
80.02,467
80.03,482
80.04,475
80.05,480
80.06,491
80.07,488
80.08,509
80.09,475
80.1,460
80.11,621
80.12,730
80.13,635
80.14,471
80.15,342
80.16,375
80.17,418
80.18,458
80.19,500
80.2,514
80.21,510
80.22,525
80.23,513
80.24,540
80.25,525
80.26,550
80.27,560
80.28,571
80.29,596
80.3,582
80.31,580
80.32,572
80.33,558
80.34,512
80.35,500
80.36,487
80.37,486
80.38,490
80.39,477
80.4,477
80.41,489
80.42,461
80.43,456
80.44,487
80.45,482
80.46,475
80.47,478
80.48,477
80.49,467
80.5,491
80.51,484
80.52,466
80.53,501
80.54,504
80.55,508
80.56,519
80.57,495
80.58,475
80.59,481
80.6,484
80.61,466
80.62,480
80.63,502
80.64,510
80.65,450
80.66,488
80.67,538
80.68,701
80.69,696
80.7,543
80.71,397
80.72,355
80.73,370
80.74,438
80.75,475
80.76,510
80.77,500
80.78,519
80.79,523
80.8,514
80.81,539
80.82,539
80.83,557
80.84,561
80.85,579
80.86,630
80.87,576
80.88,593
80.89,555
80.9,547
80.91,518
80.92,504
80.93,473
80.94,480
80.95,492
80.96,470
80.97,490
80.98,483
80.99,440
81,489
81.01,475
81.02,456
81.03,467
81.04,488
81.05,475
81.06,479
81.07,473
81.08,479
81.09,484
81.1,504
81.11,481
81.12,496
81.13,512
81.14,500
81.15,486
81.16,473
81.17,493
81.18,504
81.19,478
81.2,506
81.21,485
81.22,476
81.23,480
81.24,496
81.25,606
81.26,780
81.27,630
81.28,440
81.29,348
81.3,374
81.31,421
81.32,449
81.33,500
81.34,526
81.35,528
81.36,524
81.37,529
81.38,513
81.39,525
81.4,545
81.41,592
81.42,598
81.43,591
81.44,595
81.45,568
81.46,571
81.47,556
81.48,510
81.49,518
81.5,506
81.51,487
81.52,490
81.53,483
81.54,487
81.55,454
81.56,477
81.57,466
81.58,467
81.59,502
81.6,485
81.61,480
81.62,488
81.63,481
81.64,492
81.65,480
81.66,500
81.67,494
81.68,481
81.69,504
81.7,496
81.71,502
81.72,489
81.73,461
81.74,499
81.75,478
81.76,482
81.77,499
81.78,497
81.79,480
81.8,535
81.81,663
81.82,662
81.83,492
81.84,413
81.85,368
81.86,401
81.87,458
81.88,469
81.89,512
81.9,524
81.91,543
81.92,505
81.93,536
81.94,518
81.95,566
81.96,561
81.97,557
81.98,595
81.99,601
82,591
82.01,586
82.02,549
82.03,542
82.04,523
82.05,489
82.06,503
82.07,492
82.08,475
82.09,479
82.1,477
82.11,489
82.12,473
82.13,459
82.14,488
82.15,487
82.16,494
82.17,474
82.18,471
82.19,479
82.2,474
82.21,503
82.22,462
82.23,510
82.24,517
82.25,493
82.26,487
82.27,499
82.28,492
82.29,492
82.3,478
82.31,512
82.32,489
82.33,488
82.34,458
82.35,504
82.36,638
82.37,720
82.38,608
82.39,408
82.4,353
82.41,401
82.42,419
82.43,463
82.44,504
82.45,502
82.46,518
82.47,502
82.48,533
82.49,540
82.5,540
82.51,551
82.52,567
82.53,567
82.54,609
82.55,575
82.56,562
82.57,573
82.58,544
82.59,516
82.6,493
82.61,524
82.62,498
82.63,480
82.64,474
82.65,472
82.66,474
82.67,474
82.68,477
82.69,486
82.7,474
82.71,481
82.72,484
82.73,475
82.74,484
82.75,491
82.76,499
82.77,484
82.78,504
82.79,503
82.8,512
82.81,512
82.82,503
82.83,481
82.84,496
82.85,495
82.86,477
82.87,485
82.88,505
82.89,467
82.9,458
82.91,535
82.92,671
82.93,743
82.94,592
82.95,390
82.96,334
82.97,392
82.98,452
82.99,476
83,497
83.01,500
83.02,511
83.03,519
83.04,513
83.05,521
83.06,530
83.07,565
83.08,570
83.09,581
83.1,572
83.11,600
83.12,582
83.13,554
83.14,535
83.15,534
83.16,498
83.17,489
83.18,495
83.19,460
83.2,474
83.21,478
83.22,454
83.23,496
83.24,451
83.25,446
83.26,470
83.27,476
83.28,476
83.29,481
83.3,487
83.31,483
83.32,487
83.33,495
83.34,446
83.35,504
83.36,513
83.37,504
83.38,501
83.39,486
83.4,489
83.41,472
83.42,482
83.43,496
83.44,502
83.45,498
83.46,473
83.47,515
83.48,619
83.49,730
83.5,605
83.51,448
83.52,357
83.53,408
83.54,450
83.55,460
83.56,493
83.57,505
83.58,487
83.59,524
83.6,521
83.61,548
83.62,538
83.63,557
83.64,574
83.65,590
83.66,571
83.67,604
83.68,578
83.69,570
83.7,545
83.71,513
83.72,484
83.73,503
83.74,489
83.75,461
83.76,465
83.77,463
83.78,477
83.79,484
83.8,479
83.81,478
83.82,471
83.83,489
83.84,476
83.85,501
83.86,467
83.87,505
83.88,499
83.89,483
83.9,471
83.91,516
83.92,481
83.93,483
83.94,487
83.95,465
83.96,499
83.97,492
83.98,472
83.99,471
84,476
84.01,465
84.02,588
84.03,708
84.04,639
84.05,475
84.06,367
84.07,371
84.08,431
84.09,435
84.1,499
84.11,501
84.12,506
84.13,518
84.14,528
84.15,534
84.16,543
84.17,542
84.18,548
84.19,566
84.2,585
84.21,588
84.22,593
84.23,569
84.24,536
84.25,526
84.26,521
84.27,503
84.28,510
84.29,471
84.3,492
84.31,469
84.32,492
84.33,478
84.34,481
84.35,510
84.36,481
84.37,504
84.38,485
84.39,465
84.4,476
84.41,480
84.42,484
84.43,492
84.44,507
84.45,508
84.46,529
84.47,504
84.48,479
84.49,481
84.5,480
84.51,480
84.52,480
84.53,489
84.54,490
84.55,455
84.56,498
84.57,642
84.58,745
84.59,579
84.6,418
84.61,357
84.62,384
84.63,448
84.64,461
84.65,484
84.66,521
84.67,527
84.68,514
84.69,519
84.7,541
84.71,551
84.72,555
84.73,561
84.74,569
84.75,594
84.76,606
84.77,574
84.78,559
84.79,562
84.8,540
84.81,507
84.82,491
84.83,496
84.84,467
84.85,473
84.86,475
84.87,476
84.88,466
84.89,464
84.9,453
84.91,466
84.92,484
84.93,491
84.94,452
84.95,475
84.96,492
84.97,476
84.98,513
84.99,495
85,496
85.01,505
85.02,520
85.03,478
85.04,489
85.05,483
85.06,501
85.07,487
85.08,499
85.09,504
85.1,499
85.11,450
85.12,503
85.13,650
85.14,781
85.15,639
85.16,401
85.17,329
85.18,359
85.19,440
85.2,468
85.21,499
85.22,511
85.23,510
85.24,518
85.25,533
85.26,519
85.27,540
85.28,527
85.29,534
85.3,595
85.31,591
85.32,605
85.33,589
85.34,573
85.35,558
85.36,525
85.37,512
85.38,502
85.39,453
85.4,473
85.41,468
85.42,496
85.43,475
85.44,468
85.45,477
85.46,468
85.47,479
85.48,489
85.49,438
85.5,483
85.51,486
85.52,475
85.53,511
85.54,500
85.55,499
85.56,512
85.57,499
85.58,509
85.59,473
85.6,480
85.61,480
85.62,481
85.63,480
85.64,499
85.65,474
85.66,477
85.67,477
85.68,556
85.69,664
85.7,687
85.71,531
85.72,401
85.73,375
85.74,409
85.75,430
85.76,468
85.77,488
85.78,524
85.79,522
85.8,507
85.81,526
85.82,545
85.83,552
85.84,564
85.85,583
85.86,592
85.87,574
85.88,607
85.89,575
85.9,548
85.91,552
85.92,494
85.93,516
85.94,491
85.95,479
85.96,459
85.97,476
85.98,467
85.99,489
86,473
86.01,466
86.02,472
86.03,488
86.04,491
86.05,477
86.06,460
86.07,489
86.08,497
86.09,468
86.1,513
86.11,512
86.12,477
86.13,478
86.14,485
86.15,485
86.16,471
86.17,470
86.18,481
86.19,488
86.2,442
86.21,462
86.22,474
86.23,653
86.24,746
86.25,572
86.26,431
86.27,338
86.28,398
86.29,461
86.3,428
86.31,528
86.32,533
86.33,527
86.34,517
86.35,544
86.36,553
86.37,576
86.38,572
86.39,559
86.4,582
86.41,593
86.42,610
86.43,586
86.44,571
86.45,535
86.46,531
86.47,493
86.48,491
86.49,499
86.5,503
86.51,479
86.52,484
86.53,470
86.54,465
86.55,482
86.56,487
86.57,480
86.58,493
86.59,483
86.6,473
86.61,479
86.62,479
86.63,483
86.64,497
86.65,508
86.66,517
86.67,504
86.68,489
86.69,496
86.7,473
86.71,484
86.72,470
86.73,513
86.74,497
86.75,487
86.76,478
86.77,559
86.78,690
86.79,688
86.8,538
86.81,371
86.82,350
86.83,410
86.84,464
86.85,474
86.86,499
86.87,489
86.88,541
86.89,509
86.9,518
86.91,546
86.92,526
86.93,546
86.94,557
86.95,583
86.96,593
86.97,589
86.98,552
86.99,565
87,544
87.01,514
87.02,520
87.03,504
87.04,487
87.05,467
87.06,487
87.07,468
87.08,473
87.09,466
87.1,478
87.11,467
87.12,477
87.13,480
87.14,502
87.15,463
87.16,476
87.17,485
87.18,492
87.19,478
87.2,487
87.21,502
87.22,503
87.23,512
87.24,486
87.25,480
87.26,483
87.27,478
87.28,489
87.29,472
87.3,492
87.31,494
87.32,446
87.33,551
87.34,659
87.35,739
87.36,627
87.37,396
87.38,336
87.39,370
87.4,436
87.41,467
87.42,492
87.43,493
87.44,522
87.45,523
87.46,528
87.47,519
87.48,528
87.49,552
87.5,566
87.51,591
87.52,595
87.53,603
87.54,581
87.55,558
87.56,547
87.57,511
87.58,505
87.59,487
87.6,494
87.61,497
87.62,463
87.63,463
87.64,463
87.65,460
87.66,494
87.67,465
87.68,465
87.69,485
87.7,474
87.71,468
87.72,481
87.73,493
87.74,472
87.75,479
87.76,503
87.77,500
87.78,505
87.79,523
87.8,485
87.81,476
87.82,487
87.83,488
87.84,477
87.85,495
87.86,502
87.87,479
87.88,461
87.89,480
87.9,582
87.91,706
87.92,700
87.93,483
87.94,363
87.95,377
87.96,423
87.97,423
87.98,488
87.99,515
88,488
88.01,529
88.02,539
88.03,526
88.04,545
88.05,546
88.06,560
88.07,578
88.08,583
88.09,579
88.1,591
88.11,593
88.12,552
88.13,539
88.14,509
88.15,502
88.16,492
88.17,472
88.18,484
88.19,475
88.2,444
88.21,474
88.22,475
88.23,467
88.24,485
88.25,483
88.26,495
88.27,479
88.28,483
88.29,462
88.3,480
88.31,481
88.32,497
88.33,513
88.34,524
88.35,504
88.36,478
88.37,464
88.38,479
88.39,480
88.4,514
88.41,480
88.42,499
88.43,467
88.44,486
88.45,583
88.46,738
88.47,626
88.48,454
88.49,397
88.5,385
88.51,440
88.52,442
88.53,473
88.54,510
88.55,528
88.56,521
88.57,519
88.58,536
88.59,541
88.6,535
88.61,561
88.62,578
88.63,590
88.64,604
88.65,583
88.66,559
88.67,535
88.68,510
88.69,512
88.7,494
88.71,492
88.72,473
88.73,480
88.74,475
88.75,481
88.76,489
88.77,464
88.78,502
88.79,463
88.8,475
88.81,487
88.82,482
88.83,469
88.84,495
88.85,487
88.86,496
88.87,501
88.88,490
88.89,504
88.9,498
88.91,478
88.92,500
88.93,465
88.94,475
88.95,494
88.96,487
88.97,484
88.98,467
88.99,498
89,627
89.01,716
89.02,639
89.03,438
89.04,361
89.05,371
89.06,439
89.07,454
89.08,486
89.09,493
89.1,528
89.11,531
89.12,503
89.13,515
89.14,543
89.15,518
89.16,572
89.17,575
89.18,587
89.19,575
89.2,587
89.21,587
89.22,524
89.23,512
89.24,516
89.25,487
89.26,480
89.27,487
89.28,485
89.29,475
89.3,486
89.31,470
89.32,482
89.33,494
89.34,483
89.35,477
89.36,463
89.37,473
89.38,474
89.39,505
89.4,495
89.41,508
89.42,479
89.43,480
89.44,513
89.45,498
89.46,514
89.47,481
89.48,467
89.49,498
89.5,463
89.51,485
89.52,489
89.53,497
89.54,477
89.55,503
89.56,619
89.57,758
89.58,681
89.59,468
89.6,369
89.61,390
89.62,416
89.63,453
89.64,498
89.65,501
89.66,494
89.67,508
89.68,511
89.69,525
89.7,552
89.71,553
89.72,541
89.73,583
89.74,609
89.75,605
89.76,582
89.77,534
89.78,558
89.79,522
89.8,524
89.81,510
89.82,499
89.83,483
89.84,481
89.85,455
89.86,477
89.87,464
89.88,503
89.89,483
89.9,486
89.91,465
89.92,472
89.93,488
89.94,488
89.95,479
89.96,502
89.97,480
89.98,489
89.99,487
90,508
90.01,507
90.02,510
90.03,480
90.04,468
90.05,492
90.06,455
90.07,489
90.08,497
90.09,487
90.1,481
90.11,473
90.12,593
90.13,727
90.14,634
90.15,466
90.16,355
90.17,393
90.18,404
90.19,455
90.2,504
90.21,509
90.22,504
90.23,493
90.24,527
90.25,521
90.26,547
90.27,548
90.28,566
90.29,551
90.3,595
90.31,579
90.32,574
90.33,553
90.34,553
90.35,523
90.36,483
90.37,529
90.38,483
90.39,475
90.4,471
90.41,485
90.42,487
90.43,508
90.44,480
90.45,462
90.46,509
90.47,480
90.48,493
90.49,485
90.5,494
90.51,518
90.52,480
90.53,487
90.54,486
90.55,483
90.56,504
90.57,489
90.58,505
90.59,472
90.6,484
90.61,457
90.62,501
90.63,487
90.64,496
90.65,477
90.66,461
90.67,483
90.68,609
90.69,705
90.7,608
90.71,423
90.72,359
90.73,385
90.74,424
90.75,480
90.76,494
90.77,503
90.78,512
90.79,504
90.8,531
90.81,519
90.82,554
90.83,529
90.84,534
90.85,556
90.86,578
90.87,572
90.88,558
90.89,542
90.9,574
90.91,523
90.92,505
90.93,509
90.94,480
90.95,483
90.96,458
90.97,496
90.98,427
90.99,481
91,499
91.01,495
91.02,476
91.03,488
91.04,469
91.05,451
91.06,523
91.07,503
91.08,503
91.09,458
91.1,500
91.11,524
91.12,524
91.13,527
91.14,526
91.15,501
91.16,487
91.17,502
91.18,524
91.19,511
91.2,515
91.21,499
91.22,530
91.23,512
91.24,503
91.25,664
91.26,688
91.27,582
91.28,446
91.29,382
91.3,422
91.31,464
91.32,492
91.33,497
91.34,528
91.35,532
91.36,526
91.37,521
91.38,547
91.39,542
91.4,548
91.41,553
91.42,583
91.43,569
91.44,594
91.45,552
91.46,559
91.47,541
91.48,507
91.49,509
91.5,467
91.51,504
91.52,491
91.53,481
91.54,466
91.55,455
91.56,493
91.57,476
91.58,481
91.59,459
91.6,492
91.61,489
91.62,489
91.63,483
91.64,479
91.65,468
91.66,493
91.67,489
91.68,491
91.69,492
91.7,493
91.71,536
91.72,502
91.73,471
91.74,492
91.75,474
91.76,484
91.77,481
91.78,513
91.79,496
91.8,455
91.81,485
91.82,613
91.83,735
91.84,614
91.85,424
91.86,374
91.87,360
91.88,433
91.89,472
91.9,492
91.91,504
91.92,507
91.93,489
91.94,527
91.95,532
91.96,547
91.97,543
91.98,529
91.99,597
92,588
92.01,595
92.02,581
92.03,573
92.04,551
92.05,543
92.06,485
92.07,490
92.08,491
92.09,509
92.1,489
92.11,477
92.12,462
92.13,481
92.14,468
92.15,480
92.16,467
92.17,465
92.18,505
92.19,474
92.2,477
92.21,478
92.22,479
92.23,484
92.24,464
92.25,518
92.26,492
92.27,527
92.28,489
92.29,512
92.3,475
92.31,481
92.32,471
92.33,494
92.34,484
92.35,483
92.36,502
92.37,484
92.38,453
92.39,503
92.4,680
92.41,723
92.42,543
92.43,375
92.44,353
92.45,411
92.46,424
92.47,483
92.48,501
92.49,515
92.5,514
92.51,519
92.52,510
92.53,524
92.54,531
92.55,584
92.56,587
92.57,583
92.58,598
92.59,613
92.6,594
92.61,575
92.62,547
92.63,546
92.64,498
92.65,503
92.66,486
92.67,459
92.68,482
92.69,474
92.7,472
92.71,451
92.72,459
92.73,482
92.74,482
92.75,463
92.76,482
92.77,473
92.78,491
92.79,476
92.8,467
92.81,484
92.82,511
92.83,488
92.84,507
92.85,498
92.86,517
92.87,481
92.88,473
92.89,489
92.9,490
92.91,480
92.92,487
92.93,508
92.94,496
92.95,456
92.96,534
92.97,657
92.98,693
92.99,550
93,408
93.01,356
93.02,403
93.03,447
93.04,465
93.05,493
93.06,503
93.07,511
93.08,527
93.09,527
93.1,535
93.11,527
93.12,580
93.13,575
93.14,593
93.15,602
93.16,602
93.17,583
93.18,576
93.19,524
93.2,509
93.21,512
93.22,495
93.23,501
93.24,473
93.25,457
93.26,461
93.27,474
93.28,471
93.29,489
93.3,478
93.31,461
93.32,481
93.33,485
93.34,469
93.35,465
93.36,500
93.37,499
93.38,508
93.39,489
93.4,495
93.41,503
93.42,477
93.43,478
93.44,488
93.45,486
93.46,501
93.47,481
93.48,480
93.49,491
93.5,440
93.51,509
93.52,640
93.53,724
93.54,591
93.55,417
93.56,361
93.57,396
93.58,428
93.59,427
93.6,496
93.61,510
93.62,510
93.63,532
93.64,519
93.65,533
93.66,543
93.67,544
93.68,566
93.69,578
93.7,571
93.71,595
93.72,588
93.73,581
93.74,539
93.75,537
93.76,508
93.77,469
93.78,480
93.79,472
93.8,484
93.81,489
93.82,475
93.83,458
93.84,450
93.85,487
93.86,473
93.87,482
93.88,491
93.89,489
93.9,492
93.91,495
93.92,486
93.93,483
93.94,493
93.95,504
93.96,527
93.97,491
93.98,470
93.99,476
94,466
94.01,507
94.02,493
94.03,488
94.04,489
94.05,471
94.06,467
94.07,629
94.08,760
94.09,664
94.1,468
94.11,350
94.12,342
94.13,430
94.14,456
94.15,507
94.16,487
94.17,508
94.18,514
94.19,518
94.2,524
94.21,540
94.22,563
94.23,565
94.24,576
94.25,577
94.26,578
94.27,594
94.28,581
94.29,558
94.3,542
94.31,519
94.32,501
94.33,489
94.34,482
94.35,485
94.36,470
94.37,473
94.38,482
94.39,474
94.4,469
94.41,462
94.42,477
94.43,475
94.44,472
94.45,489
94.46,482
94.47,466
94.48,504
94.49,463
94.5,502
94.51,501
94.52,508
94.53,518
94.54,464
94.55,476
94.56,477
94.57,465
94.58,490
94.59,495
94.6,507
94.61,491
94.62,463
94.63,532
94.64,668
94.65,735
94.66,614
94.67,404
94.68,338
94.69,385
94.7,432
94.71,462
94.72,480
94.73,512
94.74,507
94.75,513
94.76,518
94.77,519
94.78,551
94.79,536
94.8,564
94.81,585
94.82,585
94.83,587
94.84,589
94.85,569
94.86,535
94.87,524
94.88,518
94.89,494
94.9,482
94.91,463
94.92,468
94.93,491
94.94,485
94.95,466
94.96,466
94.97,477
94.98,482
94.99,484
95,480
95.01,478
95.02,496
95.03,505
95.04,472
95.05,504
95.06,505
95.07,477
95.08,514
95.09,496
95.1,491
95.11,483
95.12,487
95.13,496
95.14,498
95.15,476
95.16,490
95.17,471
95.18,492
95.19,579
95.2,707
95.21,663
95.22,453
95.23,385
95.24,365
95.25,428
95.26,455
95.27,471
95.28,495
95.29,531
95.3,526
95.31,511
95.32,508
95.33,549
95.34,535
95.35,575
95.36,579
95.37,590
95.38,605
95.39,577
95.4,564
95.41,537
95.42,511
95.43,510
95.44,494
95.45,494
95.46,480
95.47,449
95.48,487
95.49,472
95.5,466
95.51,476
95.52,474
95.53,485
95.54,488
95.55,487
95.56,475
95.57,504
95.58,497
95.59,471
95.6,515
95.61,510
95.62,504
95.63,501
95.64,476
95.65,481
95.66,484
95.67,478
95.68,474
95.69,483
95.7,480
95.71,483
95.72,468
95.73,533
95.74,685
95.75,710
95.76,556
95.77,382
95.78,386
95.79,383
95.8,444
95.81,464
95.82,489
95.83,508
95.84,523
95.85,517
95.86,516
95.87,528
95.88,552
95.89,537
95.9,579
95.91,569
95.92,588
95.93,580
95.94,569
95.95,567
95.96,539
95.97,526
95.98,513
95.99,476
96,482
96.01,479
96.02,478
96.03,478
96.04,465
96.05,491
96.06,480
96.07,475
96.08,482
96.09,478
96.1,483
96.11,464
96.12,486
96.13,496
96.14,487
96.15,495
96.16,494
96.17,503
96.18,518
96.19,494
96.2,475
96.21,482
96.22,495
96.23,503
96.24,479
96.25,497
96.26,481
96.27,456
96.28,506
96.29,622
96.3,741
96.31,619
96.32,453
96.33,353
96.34,384
96.35,431
96.36,470
96.37,485
96.38,489
96.39,510
96.4,531
96.41,520
96.42,524
96.43,545
96.44,546
96.45,541
96.46,559
96.47,587
96.48,563
96.49,564
96.5,574
96.51,550
96.52,509
96.53,529
96.54,484
96.55,480
96.56,510
96.57,487
96.58,477
96.59,457
96.6,488
96.61,488
96.62,461
96.63,483
96.64,484
96.65,484
96.66,497
96.67,489
96.68,501
96.69,494
96.7,504
96.71,486
96.72,488
96.73,495
96.74,513
96.75,527
96.76,512
96.77,484
96.78,484
96.79,491
96.8,494
96.81,472
96.82,495
96.83,497
96.84,470
96.85,471
96.86,604
96.87,784
96.88,756
96.89,492
96.9,348
96.91,337
96.92,396
96.93,431
96.94,489
96.95,504
96.96,503
96.97,506
96.98,502
96.99,523
97,534
97.01,542
97.02,562
97.03,569
97.04,588
97.05,598
97.06,596
97.07,586
97.08,558
97.09,520
97.1,521
97.11,496
97.12,503
97.13,471
97.14,472
97.15,465
97.16,453
97.17,473
97.18,462
97.19,479
97.2,480
97.21,486
97.22,455
97.23,476
97.24,460
97.25,489
97.26,485
97.27,478
97.28,491
97.29,496
97.3,491
97.31,488
97.32,482
97.33,518
97.34,520
97.35,486
97.36,476
97.37,484
97.38,498
97.39,482
97.4,476
97.41,499
97.42,496
97.43,487
97.44,506
97.45,609
97.46,757
97.47,676
97.48,439
97.49,358
97.5,380
97.51,418
97.52,448
97.53,487
97.54,502
97.55,507
97.56,528
97.57,529
97.58,500
97.59,527
97.6,558
97.61,557
97.62,571
97.63,587
97.64,599
97.65,597
97.66,563
97.67,553
97.68,526
97.69,516
97.7,501
97.71,476
97.72,488
97.73,473
97.74,471
97.75,476
97.76,465
97.77,488
97.78,447
97.79,459
97.8,490
97.81,473
97.82,480
97.83,486
97.84,482
97.85,479
97.86,487
97.87,482
97.88,496
97.89,499
97.9,509
97.91,506
97.92,509
97.93,469
97.94,478
97.95,493
97.96,484
97.97,484
97.98,514
97.99,485
98,441
98.01,494
98.02,599
98.03,725
98.04,631
98.05,440
98.06,400
98.07,380
98.08,429
98.09,455
98.1,489
98.11,499
98.12,509
98.13,508
98.14,524
98.15,524
98.16,551
98.17,544
98.18,561
98.19,576
98.2,601
98.21,590
98.22,582
98.23,564
98.24,538
98.25,541
98.26,515
98.27,503
98.28,480
98.29,460
98.3,470
98.31,487
98.32,489
98.33,456
98.34,473
98.35,493
98.36,483
98.37,486
98.38,478
98.39,456
98.4,467
98.41,511
98.42,501
98.43,486
98.44,468
98.45,510
98.46,490
98.47,504
98.48,511
98.49,488
98.5,488
98.51,479
98.52,473
98.53,517
98.54,466
98.55,491
98.56,498
98.57,466
98.58,505
98.59,576
98.6,683
98.61,671
98.62,526
98.63,382
98.64,367
98.65,430
98.66,423
98.67,490
98.68,484
98.69,503
98.7,539
98.71,531
98.72,507
98.73,502
98.74,546
98.75,554
98.76,569
98.77,594
98.78,591
98.79,573
98.8,595
98.81,563
98.82,534
98.83,533
98.84,501
98.85,495
98.86,466
98.87,490
98.88,479
98.89,488
98.9,452
98.91,502
98.92,468
98.93,486
98.94,488
98.95,483
98.96,475
98.97,479
98.98,480
98.99,438
99,441
99.01,504
99.02,524
99.03,510
99.04,480
99.05,493
99.06,515
99.07,491
99.08,511
99.09,473
99.1,503
99.11,464
99.12,486
99.13,484
99.14,502
99.15,492
99.16,464
99.17,466
99.18,581
99.19,723
99.2,711
99.21,486
99.22,347
99.23,379
99.24,420
99.25,473
99.26,450
99.27,518
99.28,535
99.29,518
99.3,509
99.31,542
99.32,519
99.33,525
99.34,536
99.35,545
99.36,590
99.37,600
99.38,653
99.39,577
99.4,525
99.41,543
99.42,517
99.43,492
99.44,470
99.45,495
99.46,491
99.47,476
99.48,423
99.49,486
99.5,502
99.51,469
99.52,478
99.53,476
99.54,485
99.55,462
99.56,499
99.57,496
99.58,489
99.59,461
99.6,506
99.61,505
99.62,501
99.63,483
99.64,512
99.65,483
99.66,527
99.67,512
99.68,501
99.69,509
99.7,454
99.71,487
99.72,492
99.73,483
99.74,502
99.75,502
99.76,488
99.77,536
99.78,678
99.79,694
99.8,534
99.81,420
99.82,380
99.83,400
99.84,444
99.85,482
99.86,517
99.87,500
99.88,540
99.89,530
99.9,531
99.91,521
99.92,543
99.93,561
99.94,552
99.95,564
99.96,595
99.97,588
99.98,584
99.99,566
100,526
100.01,532
100.02,498
100.03,508
100.04,477
100.05,500
100.06,484
100.07,465
100.08,468
100.09,487
100.1,505
100.11,495
100.12,500
100.13,505
100.14,480
100.15,488
100.16,472
100.17,483
100.18,502
100.19,480
100.2,493
100.21,492
100.22,523
100.23,513
100.24,487
100.25,528
100.26,479
100.27,472
100.28,499
100.29,506
100.3,502
100.31,476
100.32,500
100.33,487
100.34,477
100.35,570
100.36,691
100.37,662
100.38,517
100.39,386
100.4,369
100.41,403
100.42,440
100.43,493
100.44,512
100.45,504
100.46,512
100.47,524
100.48,521
100.49,553
100.5,540
100.51,568
100.52,567
100.53,558
100.54,590
100.55,602
100.56,569
100.57,530
100.58,569
100.59,537
100.6,509
100.61,479
100.62,486
100.63,484
100.64,477
100.65,449
100.66,498
100.67,500
100.68,478
100.69,458
100.7,476
100.71,470
100.72,492
100.73,494
100.74,493
100.75,487
100.76,478
100.77,497
100.78,486
100.79,461
100.8,505
100.81,515
100.82,522
100.83,515
100.84,480
100.85,489
100.86,472
100.87,484
100.88,505
100.89,489
100.9,507
100.91,472
100.92,472
100.93,525
100.94,681
100.95,732
100.96,594
100.97,412
100.98,339
100.99,384
101,432
101.01,448
101.02,509
101.03,497
101.04,520
101.05,495
101.06,516
101.07,534
101.08,546
101.09,514
101.1,561
101.11,575
101.12,565
101.13,612
101.14,595
101.15,556
101.16,542
101.17,539
101.18,519
101.19,458
101.2,504
101.21,487
101.22,467
101.23,480
101.24,455
101.25,475
101.26,451
101.27,464
101.28,497
101.29,475
101.3,454
101.31,494
101.32,476
101.33,480
101.34,478
101.35,446
101.36,507
101.37,495
101.38,492
101.39,496
101.4,502
101.41,518
101.42,493
101.43,462
101.44,483
101.45,473
101.46,503
101.47,478
101.48,506
101.49,483
101.5,469
101.51,480
101.52,563
101.53,713
101.54,726
101.55,533
101.56,401
101.57,367
101.58,395
101.59,440
101.6,479
101.61,482
101.62,515
101.63,516
101.64,529
101.65,518
101.66,535
101.67,516
101.68,562
101.69,579
101.7,571
101.71,598
101.72,608
101.73,582
101.74,546
101.75,536
101.76,551
101.77,488
101.78,507
101.79,476
101.8,487
101.81,469
101.82,443
101.83,472
101.84,480
101.85,481
101.86,485
101.87,483
101.88,470
101.89,475
101.9,471
101.91,488
101.92,480
101.93,502
101.94,495
101.95,482
101.96,504
101.97,517
101.98,506
101.99,490
102,494
102.01,482
102.02,483
102.03,490
102.04,487
102.05,499
102.06,495
102.07,484
102.08,446
102.09,510
102.1,671
102.11,670
102.12,544
102.13,429
102.14,385
102.15,406
102.16,437
102.17,464
102.18,504
102.19,505
102.2,525
102.21,527
102.22,518
102.23,549
102.24,506
102.25,571
102.26,577
102.27,576
102.28,596
102.29,594
102.3,583
102.31,556
102.32,537
102.33,507
102.34,516
102.35,487
102.36,496
102.37,483
102.38,455
102.39,474
102.4,457
102.41,487
102.42,471
102.43,483
102.44,457
102.45,489
102.46,462
102.47,496
102.48,483
102.49,503
102.5,487
102.51,494
102.52,497
102.53,507
102.54,513
102.55,487
102.56,487
102.57,498
102.58,488
102.59,484
102.6,488
102.61,478
102.62,470
102.63,491
102.64,485
102.65,514
102.66,663
102.67,722
102.68,573
102.69,420
102.7,351
102.71,366
102.72,434
102.73,485
102.74,481
102.75,516
102.76,513
102.77,506
102.78,533
102.79,528
102.8,554
102.81,544
102.82,569
102.83,575
102.84,570
102.85,581
102.86,591
102.87,558
102.88,547
102.89,533
102.9,519
102.91,492
102.92,486
102.93,471
102.94,466
102.95,473
102.96,480
102.97,472
102.98,467
102.99,494
103,502
103.01,474
103.02,483
103.03,481
103.04,492
103.05,493
103.06,476
103.07,498
103.08,477
103.09,510
103.1,496
103.11,503
103.12,499
103.13,497
103.14,481
103.15,486
103.16,465
103.17,490
103.18,505
103.19,481
103.2,465
103.21,491
103.22,604
103.23,734
103.24,673
103.25,491
103.26,347
103.27,360
103.28,423
103.29,455
103.3,489
103.31,486
103.32,492
103.33,532
103.34,496
103.35,539
103.36,540
103.37,542
103.38,550
103.39,552
103.4,578
103.41,599
103.42,573
103.43,577
103.44,572
103.45,537
103.46,524
103.47,496
103.48,481
103.49,475
103.5,487
103.51,471
103.52,480
103.53,485
103.54,486
103.55,470
103.56,440
103.57,454
103.58,508
103.59,486
103.6,495
103.61,480
103.62,495
103.63,494
103.64,482
103.65,496
103.66,482
103.67,520
103.68,522
103.69,499
103.7,501
103.71,477
103.72,487
103.73,475
103.74,502
103.75,485
103.76,504
103.77,476
103.78,468
103.79,504
103.8,676
103.81,751
103.82,581
103.83,435
103.84,351
103.85,382
103.86,430
103.87,464
103.88,509
103.89,489
103.9,512
103.91,523
103.92,513
103.93,520
103.94,543
103.95,565
103.96,564
103.97,588
103.98,574
103.99,566
104,600
104.01,573
104.02,538
104.03,545
104.04,503
104.05,516
104.06,486
104.07,470
104.08,457
104.09,476
104.1,489
104.11,440
104.12,486
104.13,461
104.14,483
104.15,489
104.16,458
104.17,499
104.18,464
104.19,498
104.2,484
104.21,487
104.22,501
104.23,475
104.24,492
104.25,464
104.26,524
104.27,490
104.28,482
104.29,489
104.3,489
104.31,470
104.32,488
104.33,480
104.34,469
104.35,505
104.36,630
104.37,716
104.38,585
104.39,420
104.4,363
104.41,401
104.42,441
104.43,463
104.44,501
104.45,499
104.46,496
104.47,538
104.48,517
104.49,553
104.5,559
104.51,543
104.52,564
104.53,583
104.54,587
104.55,602
104.56,560
104.57,565
104.58,537
104.59,550
104.6,510
104.61,498
104.62,487
104.63,502
104.64,506
104.65,476
104.66,469
104.67,484
104.68,468
104.69,502
104.7,492
104.71,483
104.72,488
104.73,473
104.74,474
104.75,510
104.76,467
104.77,495
104.78,484
104.79,489
104.8,539
104.81,532
104.82,476
104.83,454
104.84,481
104.85,521
104.86,491
104.87,489
104.88,496
104.89,475
104.9,455
104.91,460
104.92,693
104.93,782
104.94,620
104.95,424
104.96,325
104.97,382
104.98,422
104.99,432
105,512
105.01,535
105.02,507
105.03,521
105.04,512
105.05,548
105.06,546
105.07,514
105.08,568
105.09,572
105.1,575
105.11,604
105.12,580
105.13,570
105.14,532
105.15,530
105.16,527
105.17,506
105.18,485
105.19,476
105.2,463
105.21,468
105.22,455
105.23,497
105.24,480
105.25,496
105.26,467
105.27,472
105.28,489
105.29,443
105.3,489
105.31,497
105.32,477
105.33,455
105.34,503
105.35,494
105.36,490
105.37,526
105.38,511
105.39,501
105.4,474
105.41,478
105.42,485
105.43,500
105.44,491
105.45,470
105.46,499
105.47,471
105.48,456
105.49,550
105.5,725
105.51,749
105.52,591
105.53,376
105.54,334
105.55,404
105.56,444
105.57,483
105.58,495
105.59,480
105.6,484
105.61,540
105.62,514
105.63,508
105.64,530
105.65,561
105.66,557
105.67,586
105.68,578
105.69,557
105.7,609
105.71,579
105.72,573
105.73,531
105.74,498
105.75,519
105.76,496
105.77,474
105.78,471
105.79,471
105.8,469
105.81,485
105.82,484
105.83,445
105.84,470
105.85,487
105.86,474
105.87,483
105.88,481
105.89,451
105.9,493
105.91,483
105.92,507
105.93,496
105.94,527
105.95,499
105.96,472
105.97,484
105.98,476
105.99,488
106,497
106.01,473
106.02,451
106.03,481
106.04,502
106.05,627
106.06,711
106.07,662
106.08,459
106.09,366
106.1,379
106.11,425
106.12,453
106.13,485
106.14,494
106.15,520
106.16,520
106.17,531
106.18,528
106.19,532
106.2,554
106.21,545
106.22,585
106.23,580
106.24,604
106.25,584
106.26,556
106.27,560
106.28,535
106.29,520
106.3,515
106.31,496
106.32,470
106.33,473
106.34,475
106.35,470
106.36,483
106.37,480
106.38,468
106.39,468
106.4,475
106.41,476
106.42,481
106.43,441
106.44,508
106.45,512
106.46,482
106.47,493
106.48,508
106.49,497
106.5,486
106.51,483
106.52,482
106.53,495
106.54,496
106.55,473
106.56,474
106.57,493
106.58,468
106.59,505
106.6,673
106.61,705
106.62,604
106.63,410
106.64,356
106.65,372
106.66,440
106.67,470
106.68,504
106.69,505
106.7,522
106.71,509
106.72,498
106.73,535
106.74,541
106.75,550
106.76,541
106.77,590
106.78,591
106.79,557
106.8,591
106.81,575
106.82,538
106.83,537
106.84,494
106.85,492
106.86,492
106.87,447
106.88,509
106.89,491
106.9,462
106.91,483
106.92,484
106.93,480
106.94,465
106.95,474
106.96,492
106.97,500
106.98,487
106.99,491
107,481
107.01,498
107.02,514
107.03,496
107.04,501
107.05,502
107.06,478
107.07,459
107.08,453
107.09,535
107.1,516
107.11,504
107.12,493
107.13,472
107.14,550
107.15,655
107.16,657
107.17,536
107.18,417
107.19,359
107.2,425
107.21,446
107.22,477
107.23,511
107.24,487
107.25,504
107.26,536
107.27,532
107.28,534
107.29,532
107.3,539
107.31,535
107.32,579
107.33,572
107.34,561
107.35,576
107.36,551
107.37,536
107.38,535
107.39,484
107.4,509
107.41,492
107.42,489
107.43,461
107.44,492
107.45,490
107.46,480
107.47,472
107.48,493
107.49,485
107.5,496
107.51,463
107.52,497
107.53,492
107.54,496
107.55,487
107.56,503
107.57,489
107.58,508
107.59,512
107.6,499
107.61,482
107.62,485
107.63,499
107.64,474
107.65,493
107.66,495
107.67,472
107.68,493
107.69,464
107.7,554
107.71,701
107.72,714
107.73,544
107.74,380
107.75,346
107.76,403
107.77,438
107.78,473
107.79,498
107.8,511
107.81,531
107.82,525
107.83,509
107.84,515
107.85,542
107.86,548
107.87,547
107.88,605
107.89,591
107.9,597
107.91,572
107.92,564
107.93,550
107.94,514
107.95,508
107.96,497
107.97,463
107.98,502
107.99,485
108,488
108.01,467
108.02,467
108.03,475
108.04,477
108.05,468
108.06,475
108.07,483
108.08,486
108.09,493
108.1,480
108.11,481
108.12,495
108.13,495
108.14,486
108.15,495
108.16,533
108.17,501
108.18,455
108.19,479
108.2,492
108.21,478
108.22,483
108.23,511
108.24,493
108.25,452
108.26,473
108.27,596
108.28,760
108.29,668
108.3,472
108.31,329
108.32,369
108.33,421
108.34,454
108.35,496
108.36,496
108.37,508
108.38,531
108.39,511
108.4,539
108.41,532
108.42,540
108.43,556
108.44,581
108.45,573
108.46,591
108.47,588
108.48,560
108.49,552
108.5,560
108.51,512
108.52,505
108.53,504
108.54,486
108.55,475
108.56,475
108.57,468
108.58,480
108.59,462
108.6,463
108.61,476
108.62,476
108.63,475
108.64,488
108.65,468
108.66,502
108.67,472
108.68,507
108.69,486
108.7,489
108.71,510
108.72,524
108.73,492
108.74,489
108.75,480
108.76,497
108.77,480
108.78,485
108.79,497
108.8,494
108.81,465
108.82,446
108.83,560
108.84,660
108.85,711
108.86,530
108.87,408
108.88,376
108.89,386
108.9,430
108.91,451
108.92,478
108.93,510
108.94,519
108.95,533
108.96,516
108.97,536
108.98,523
108.99,542
109,572
109.01,590
109.02,601
109.03,591
109.04,566
109.05,570
109.06,526
109.07,535
109.08,499
109.09,484
109.1,495
109.11,482
109.12,465
109.13,464
109.14,473
109.15,479
109.16,485
109.17,480
109.18,455
109.19,485
109.2,479
109.21,473
109.22,483
109.23,495
109.24,494
109.25,480
109.26,490
109.27,512
109.28,465
109.29,508
109.3,497
109.31,481
109.32,491
109.33,481
109.34,476
109.35,482
109.36,472
109.37,471
109.38,521
109.39,651
109.4,681
109.41,560
109.42,426
109.43,363
109.44,392
109.45,457
109.46,461
109.47,463
109.48,527
109.49,514
109.5,530
109.51,511
109.52,531
109.53,533
109.54,545
109.55,572
109.56,591
109.57,593
109.58,587
109.59,572
109.6,552
109.61,541
109.62,519
109.63,510
109.64,508
109.65,479
109.66,479
109.67,473
109.68,485
109.69,483
109.7,473
109.71,465
109.72,498
109.73,501
109.74,480
109.75,476
109.76,512
109.77,472
109.78,487
109.79,504
109.8,502
109.81,501
109.82,507
109.83,513
109.84,502
109.85,486
109.86,488
109.87,487
109.88,474
109.89,490
109.9,513
109.91,496
109.92,478
109.93,483
109.94,599
109.95,705
109.96,620
109.97,479
109.98,393
109.99,367
110,437
110.01,454
110.02,483
110.03,491
110.04,511
110.05,524
110.06,504
110.07,528
110.08,536
110.09,540
110.1,543
110.11,540
110.12,577
110.13,577
110.14,579
110.15,577
110.16,542
110.17,536
110.18,519
110.19,504
110.2,496
110.21,476
110.22,489
110.23,486
110.24,492
110.25,475
110.26,484
110.27,493
110.28,487
110.29,476
110.3,486
110.31,479
110.32,495
110.33,485
110.34,495
110.35,492
110.36,497
110.37,519
110.38,496
110.39,513
110.4,521
110.41,494
110.42,490
110.43,488
110.44,478
110.45,504
110.46,494
110.47,483
110.48,489
110.49,492
110.5,496
110.51,609
110.52,748
110.53,664
110.54,459
110.55,345
110.56,361
110.57,438
110.58,452
110.59,505
110.6,511
110.61,515
110.62,509
110.63,525
110.64,514
110.65,543
110.66,537
110.67,540
110.68,569
110.69,569
110.7,594
110.71,587
110.72,576
110.73,532
110.74,557
110.75,525
110.76,512
110.77,485
110.78,465
110.79,476
110.8,486
110.81,480
110.82,466
110.83,471
110.84,457
110.85,472
110.86,482
110.87,468
110.88,478
110.89,476
110.9,494
110.91,493
110.92,481
110.93,484
110.94,508
110.95,494
110.96,489
110.97,517
110.98,513
110.99,497
111,490
111.01,474
111.02,475
111.03,476
111.04,487
111.05,504
111.06,504
111.07,476
111.08,467
111.09,525
111.1,655
111.11,736
111.12,620
111.13,415
111.14,359
111.15,385
111.16,429
111.17,462
111.18,496
111.19,496
111.2,521
111.21,500
111.22,540
111.23,518
111.24,549
111.25,547
111.26,551
111.27,574
111.28,600
111.29,575
111.3,590
111.31,572
111.32,560
111.33,537
111.34,508
111.35,504
111.36,483
111.37,486
111.38,464
111.39,481
111.4,484
111.41,471
111.42,451
111.43,488
111.44,487
111.45,479
111.46,479
111.47,486
111.48,464
111.49,487
111.5,483
111.51,494
111.52,481
111.53,501
111.54,507
111.55,508
111.56,493
111.57,532
111.58,473
111.59,491
111.6,485
111.61,486
111.62,504
111.63,491
111.64,496
111.65,485
111.66,477
111.67,553
111.68,646
111.69,707
111.7,560
111.71,415
111.72,358
111.73,410
111.74,433
111.75,460
111.76,476
111.77,517
111.78,519
111.79,527
111.8,539
111.81,514
111.82,543
111.83,558
111.84,574
111.85,586
111.86,572
111.87,593
111.88,581
111.89,555
111.9,542
111.91,537
111.92,491
111.93,486
111.94,492
111.95,479
111.96,465
111.97,459
111.98,473
111.99,452
112,504
112.01,496
112.02,455
112.03,478
112.04,475
112.05,486
112.06,481
112.07,461
112.08,480
112.09,525
112.1,485
112.11,494
112.12,501
112.13,507
112.14,486
112.15,477
112.16,468
112.17,473
112.18,472
112.19,507
112.2,507
112.21,459
112.22,473
112.23,464
112.24,576
112.25,730
112.26,627
112.27,464
112.28,382
112.29,373
112.3,437
112.31,428
112.32,473
112.33,487
112.34,523
112.35,528
112.36,496
112.37,504
112.38,535
112.39,538
112.4,541
112.41,559
112.42,589
112.43,587
112.44,604
112.45,557
112.46,556
112.47,547
112.48,502
112.49,523
112.5,479
112.51,474
112.52,497
112.53,458
112.54,493
112.55,462
112.56,471
112.57,497
112.58,459
112.59,469
112.6,459
112.61,522
112.62,514
112.63,453
112.64,497
112.65,500
112.66,488
112.67,505
112.68,501
112.69,518
112.7,511
112.71,525
112.72,479
112.73,516
112.74,475
112.75,499
112.76,495
112.77,469
112.78,518
112.79,477
112.8,504
112.81,515
112.82,687
112.83,717
112.84,619
112.85,439
112.86,341
112.87,411
112.88,443
112.89,463
112.9,472
112.91,520
112.92,541
112.93,496
112.94,518
112.95,516
112.96,524
112.97,561
112.98,550
112.99,559
113,582
113.01,551
113.02,632
113.03,586
113.04,548
113.05,515
113.06,481
113.07,499
113.08,513
113.09,502
113.1,469
113.11,463
113.12,484
113.13,442
113.14,511
113.15,460
113.16,486
113.17,491
113.18,471
113.19,487
113.2,481
113.21,511
113.22,487
113.23,479
113.24,481
113.25,505
113.26,516
113.27,515
113.28,508
113.29,498
113.3,525
113.31,488
113.32,487
113.33,483
113.34,483
113.35,448
113.36,527
113.37,476
113.38,498
113.39,473
113.4,536
113.41,740
113.42,679
113.43,499
113.44,391
113.45,380
113.46,413
113.47,454
113.48,460
113.49,492
113.5,520
113.51,513
113.52,520
113.53,524
113.54,515
113.55,548
113.56,552
113.57,549
113.58,588
113.59,554
113.6,585
113.61,562
113.62,581
113.63,527
113.64,509
113.65,515
113.66,497
113.67,494
113.68,496
113.69,498
113.7,480
113.71,485
113.72,469
113.73,460
113.74,487
113.75,462
113.76,492
113.77,509
113.78,479
113.79,463
113.8,503
113.81,455
113.82,528
113.83,500
113.84,479
113.85,512
113.86,504
113.87,499
113.88,475
113.89,491
113.9,487
113.91,493
113.92,485
113.93,508
113.94,473
113.95,476
113.96,504
113.97,557
113.98,675
113.99,648
114,480
114.01,398
114.02,408
114.03,406
114.04,436
114.05,486
114.06,517
114.07,508
114.08,516
114.09,523
114.1,520
114.11,508
114.12,552
114.13,566
114.14,567
114.15,586
114.16,577
114.17,570
114.18,574
114.19,559
114.2,529
114.21,516
114.22,512
114.23,494
114.24,500
114.25,496
114.26,482
114.27,451
114.28,476
114.29,497
114.3,487
114.31,478
114.32,487
114.33,487
114.34,453
114.35,467
114.36,497
114.37,493
114.38,481
114.39,514
114.4,450
114.41,491
114.42,527
114.43,496
114.44,508
114.45,481
114.46,496
114.47,445
114.48,515
114.49,503
114.5,472
114.51,505
114.52,477
114.53,476
114.54,516
114.55,700
114.56,723
114.57,567
114.58,375
114.59,377
114.6,403
114.61,439
114.62,493
114.63,476
114.64,504
114.65,513
114.66,506
114.67,516
114.68,539
114.69,525
114.7,545
114.71,565
114.72,590
114.73,579
114.74,569
114.75,576
114.76,576
114.77,539
114.78,522
114.79,509
114.8,497
114.81,480
114.82,476
114.83,472
114.84,476
114.85,466
114.86,478
114.87,488
114.88,476
114.89,484
114.9,480
114.91,480
114.92,463
114.93,476
114.94,511
114.95,499
114.96,469
114.97,519
114.98,499
114.99,464
115,532
115.01,538
115.02,498
115.03,476
115.04,454
115.05,479
115.06,495
115.07,511
115.08,482
115.09,499
115.1,463
115.11,471
115.12,541
115.13,716
115.14,729
115.15,539
115.16,349
115.17,363
115.18,409
115.19,408
115.2,474
115.21,492
115.22,494
115.23,529
115.24,512
115.25,527
115.26,516
115.27,520
115.28,551
115.29,538
115.3,604
115.31,618
115.32,597
115.33,563
115.34,567
115.35,523
115.36,513
115.37,523
115.38,524
115.39,500
115.4,468
115.41,477
115.42,465
115.43,451
115.44,478
115.45,466
115.46,482
115.47,468
115.48,478
115.49,476
115.5,476
115.51,449
115.52,492
115.53,466
115.54,478
115.55,487
115.56,518
115.57,496
115.58,481
115.59,495
115.6,517
115.61,500
115.62,498
115.63,488
115.64,493
115.65,499
115.66,478
115.67,477
115.68,511
115.69,482
115.7,476
115.71,535
115.72,684
115.73,721
115.74,570
115.75,399
115.76,349
115.77,428
115.78,423
115.79,466
115.8,510
115.81,519
115.82,510
115.83,514
115.84,521
115.85,496
115.86,543
115.87,543
115.88,568
115.89,563
115.9,596
115.91,564
115.92,594
115.93,600
115.94,551
115.95,517
115.96,509
115.97,481
115.98,436
115.99,467
116,466
116.01,507
116.02,508
116.03,483
116.04,451
116.05,441
116.06,437
116.07,462
116.08,473
116.09,477
116.1,530
116.11,474
116.12,490
116.13,484
116.14,465
116.15,481
116.16,457
116.17,515
116.18,520
116.19,472
116.2,487
116.21,473
116.22,462
116.23,510
116.24,478
116.25,492
116.26,500
116.27,518
116.28,473
116.29,646
116.3,680
116.31,566
116.32,400
116.33,361
116.34,392
116.35,444
116.36,443
116.37,521
116.38,472
116.39,550
116.4,526
116.41,512
116.42,534
116.43,553
116.44,544
116.45,553
116.46,570
116.47,585
116.48,579
116.49,621
116.5,583
116.51,540
116.52,508
116.53,522
116.54,495
116.55,512
116.56,479
116.57,513
116.58,496
116.59,443
116.6,479
116.61,496
116.62,483
116.63,451
116.64,494
116.65,500
116.66,503
116.67,460
116.68,488
116.69,518
116.7,480
116.71,467
116.72,496
116.73,508
116.74,524
116.75,511
116.76,516
116.77,498
116.78,475
116.79,506
116.8,496
116.81,479
116.82,486
116.83,504
116.84,476
116.85,487
116.86,541
116.87,689
116.88,666
116.89,505
116.9,369
116.91,371
116.92,432
116.93,435
116.94,503
116.95,525
116.96,491
116.97,528
116.98,537
116.99,536
117,516
117.01,539
117.02,533
117.03,543
117.04,558
117.05,601
117.06,570
117.07,591
117.08,552
117.09,516
117.1,525
117.11,514
117.12,518
117.13,472
117.14,469
117.15,493
117.16,460
117.17,486
117.18,480
117.19,486
117.2,511
117.21,459
117.22,491
117.23,465
117.24,496
117.25,473
117.26,443
117.27,518
117.28,532
117.29,491
117.3,483
117.31,513
117.32,484
117.33,517
117.34,525
117.35,511
117.36,464
117.37,495
117.38,491
117.39,497
117.4,476
117.41,483
117.42,491
117.43,450
117.44,476
117.45,585
117.46,759
117.47,710
117.48,498
117.49,346
117.5,375
117.51,410
117.52,455
117.53,468
117.54,518
117.55,464
117.56,514
117.57,519
117.58,502
117.59,516
117.6,535
117.61,568
117.62,554
117.63,591
117.64,606
117.65,583
117.66,552
117.67,532
117.68,559
117.69,553
117.7,516
117.71,503
117.72,498
117.73,467
117.74,458
117.75,473
117.76,462
117.77,478
117.78,457
117.79,473
117.8,451
117.81,485
117.82,497
117.83,468
117.84,464
117.85,478
117.86,461
117.87,489
117.88,474
117.89,508
117.9,496
117.91,495
117.92,517
117.93,520
117.94,503
117.95,479
117.96,488
117.97,476
117.98,514
117.99,484
118,457
118.01,483
118.02,472
118.03,491
118.04,548
118.05,769
118.06,687
118.07,485
118.08,378
118.09,406
118.1,413
118.11,420
118.12,478
118.13,501
118.14,529
118.15,518
118.16,511
118.17,556
118.18,530
118.19,525
118.2,544
118.21,569
118.22,607
118.23,598
118.24,598
118.25,609
118.26,552
118.27,554
118.28,524
118.29,489
118.3,485
118.31,501
118.32,500
118.33,481
118.34,460
118.35,490
118.36,441
118.37,475
118.38,470
118.39,478
118.4,515
118.41,487
118.42,500
118.43,523
118.44,469
118.45,494
118.46,490
118.47,448
118.48,515
118.49,495
118.5,518
118.51,510
118.52,494
118.53,487
118.54,476
118.55,463
118.56,504
118.57,482
118.58,497
118.59,473
118.6,481
118.61,590
118.62,740
118.63,657
118.64,463
118.65,366
118.66,362
118.67,417
118.68,464
118.69,465
118.7,485
118.71,514
118.72,527
118.73,506
118.74,528
118.75,529
118.76,549
118.77,554
118.78,560
118.79,587
118.8,592
118.81,582
118.82,586
118.83,559
118.84,536
118.85,527
118.86,495
118.87,493
118.88,484
118.89,462
118.9,467
118.91,476
118.92,483
118.93,478
118.94,472
118.95,472
118.96,473
118.97,484
118.98,471
118.99,478
119,485
119.01,473
119.02,504
119.03,489
119.04,506
119.05,475
119.06,483
119.07,520
119.08,501
119.09,497
119.1,488
119.11,492
119.12,487
119.13,467
119.14,485
119.15,492
119.16,478
119.17,479
119.18,567
119.19,694
119.2,643
119.21,508
119.22,394
119.23,373
119.24,410
119.25,445
119.26,482
119.27,499
119.28,505
119.29,512
119.3,521
119.31,514
119.32,536
119.33,526
119.34,558
119.35,557
119.36,582
119.37,584
119.38,601
119.39,563
119.4,549
119.41,550
119.42,489
119.43,575
119.44,474
119.45,472
119.46,519
119.47,485
119.48,484
119.49,483
119.5,510
119.51,456
119.52,501
119.53,487
119.54,481
119.55,489
119.56,489
119.57,469
119.58,497
119.59,494
119.6,489
119.61,501
119.62,502
119.63,494
119.64,510
119.65,515
119.66,492
119.67,469
119.68,475
119.69,478
119.7,498
119.71,490
119.72,489
119.73,492
119.74,488
119.75,484
119.76,584
119.77,710
119.78,685
119.79,499
119.8,369
119.81,339
119.82,420
119.83,446
119.84,485
119.85,492
119.86,507
119.87,517
119.88,519
119.89,529
119.9,534
119.91,528
119.92,560
119.93,564
119.94,588
119.95,574
119.96,593
119.97,559
119.98,561
119.99,545
120,510
120.01,499
120.02,505
120.03,504
120.04,492
120.05,461
120.06,467
120.07,477
120.08,487
120.09,440
120.1,497
120.11,478
120.12,501
120.13,488
120.14,475
120.15,489
120.16,486
120.17,475
120.18,479
120.19,479
120.2,506
120.21,498
120.22,535
120.23,513
120.24,501
120.25,461
120.26,480
120.27,471
120.28,500
120.29,480
120.3,483
120.31,497
120.32,466
120.33,442
120.34,548
120.35,723
120.36,705
120.37,559
120.38,378
