Fs=100t,x0,5030.01,5030.02,5150.03,5000.04,5280.05,5040.06,5010.07,5170.08,4990.09,5310.1,5070.11,5020.12,5170.13,4990.14,5310.15,5080.16,4990.17,5190.18,4970.19,5300.2,5070.21,5010.22,5190.23,4980.24,5310.25,5100.26,5000.27,5190.28,4970.29,5330.3,5090.31,5000.32,5190.33,4970.34,5340.35,5090.36,4990.37,5200.38,4990.39,5340.4,5070.41,5000.42,5190.43,4980.44,5350.45,5130.46,4990.47,5190.48,4970.49,5360.5,5100.51,5000.52,5180.53,4980.54,5310.55,5130.56,5000.57,5200.58,4970.59,5340.6,5140.61,5020.62,5170.63,4990.64,5290.65,5160.66,5000.67,5200.68,4990.69,5310.7,5150.71,5010.72,5190.73,5000.74,5330.75,5130.76,5000.77,5190.78,4980.79,5310.8,5140.81,5010.82,5200.83,5000.84,5300.85,5140.86,5000.87,5190.88,4970.89,5300.9,5160.91,4980.92,5190.93,4970.94,5280.95,5150.96,4980.97,5180.98,4970.99,5281,5161.01,5001.02,5191.03,4951.04,5261.05,5161.06,4991.07,5171.08,4971.09,5301.1,5151.11,4971.12,5191.13,4971.14,5271.15,5151.16,4991.17,5181.18,4991.19,5271.2,5171.21,4971.22,5161.23,4951.24,5251.25,5141.26,4971.27,5161.28,4961.29,5241.3,5151.31,4971.32,5181.33,4951.34,5231.35,5161.36,4971.37,5171.38,4961.39,5231.4,5171.41,4971.42,5181.43,4961.44,5201.45,5151.46,4961.47,5181.48,4951.49,5201.5,5181.51,4971.52,5181.53,4961.54,5191.55,5161.56,4981.57,5171.58,4971.59,5171.6,5141.61,4971.62,5181.63,4961.64,5181.65,5161.66,4991.67,5151.68,4951.69,5171.7,5181.71,4951.72,5181.73,4961.74,5161.75,5181.76,4971.77,5171.78,4971.79,5141.8,5171.81,4941.82,5161.83,4961.84,5121.85,5141.86,4961.87,5181.88,4941.89,5111.9,5161.91,4951.92,5171.93,4961.94,5111.95,5181.96,4921.97,5181.98,4951.99,5102,5202.01,4932.02,5192.03,4952.04,5092.05,5212.06,4922.07,5202.08,4942.09,5082.1,5202.11,4932.12,5192.13,4972.14,5082.15,5202.16,4932.17,5192.18,4952.19,5072.2,5182.21,4932.22,5192.23,4942.24,5082.25,5182.26,4912.27,5212.28,4942.29,5072.3,5182.31,4942.32,5192.33,4962.34,5062.35,5192.36,4932.37,5232.38,4932.39,5042.4,5182.41,4952.42,5222.43,4982.44,5042.45,5202.46,4962.47,5222.48,4962.49,5062.5,5182.51,4962.52,5232.53,4962.54,5032.55,5152.56,4962.57,5252.58,4992.59,5052.6,5142.61,4952.62,5232.63,5002.64,5042.65,5182.66,4982.67,5232.68,4992.69,5052.7,5152.71,4992.72,5242.73,4992.74,5032.75,5162.76,4982.77,5222.78,4972.79,5062.8,5162.81,4982.82,5222.83,5002.84,5032.85,5152.86,5002.87,5222.88,5012.89,5072.9,5122.91,5002.92,5192.93,4992.94,5062.95,5132.96,5042.97,5192.98,5052.99,5083,5133.01,5033.02,5193.03,5043.04,5103.05,5123.06,5043.07,5193.08,5023.09,5083.1,5123.11,5033.12,5193.13,5033.14,5103.15,5143.16,5023.17,5213.18,5023.19,5083.2,5133.21,5013.22,5213.23,5023.24,5113.25,5133.26,5003.27,5213.28,5053.29,5103.3,5153.31,5003.32,5203.33,5043.34,5083.35,5123.36,5003.37,5253.38,5023.39,5083.4,5153.41,5013.42,5273.43,5053.44,5083.45,5153.46,5013.47,5253.48,5043.49,5073.5,5133.51,5013.52,5233.53,5073.54,5093.55,5143.56,5013.57,5233.58,5043.59,5093.6,5123.61,5033.62,5233.63,5043.64,5083.65,5123.66,5013.67,5213.68,5053.69,5113.7,5113.71,5053.72,5213.73,5083.74,5093.75,5113.76,5033.77,5233.78,5103.79,5103.8,5123.81,5053.82,5213.83,5063.84,5093.85,5133.86,5043.87,5193.88,5073.89,5113.9,5123.91,5043.92,5213.93,5103.94,5093.95,5123.96,5053.97,5193.98,5073.99,5114,5154.01,5044.02,5224.03,5084.04,5084.05,5124.06,5044.07,5214.08,5124.09,5104.1,5124.11,5044.12,5214.13,5084.14,5084.15,5134.16,5034.17,5214.18,5074.19,5084.2,5114.21,5054.22,5204.23,5084.24,5084.25,5134.26,5044.27,5194.28,5104.29,5114.3,5124.31,5034.32,5194.33,5114.34,5094.35,5114.36,5044.37,5194.38,5104.39,5064.4,5114.41,5044.42,5214.43,5114.44,5084.45,5134.46,5044.47,5194.48,5104.49,5074.5,5124.51,5034.52,5184.53,5104.54,5094.55,5134.56,5044.57,5194.58,5114.59,5074.6,5124.61,5054.62,5174.63,5084.64,5094.65,5124.66,5024.67,5194.68,5104.69,5094.7,5154.71,5034.72,5194.73,5104.74,5054.75,5134.76,5044.77,5184.78,5114.79,5084.8,5124.81,5024.82,5194.83,5114.84,5074.85,5104.86,5034.87,5184.88,5104.89,5064.9,5124.91,5044.92,5194.93,5084.94,5064.95,5144.96,5014.97,5184.98,5104.99,5055,5125.01,5045.02,5165.03,5115.04,5065.05,5135.06,5025.07,5165.08,5125.09,5065.1,5145.11,5005.12,5185.13,5105.14,5065.15,5125.16,5025.17,5165.18,5115.19,5065.2,5125.21,5015.22,5135.23,5105.24,5065.25,5125.26,5035.27,5135.28,5085.29,5055.3,5125.31,5045.32,5155.33,5105.34,5045.35,5115.36,5005.37,5155.38,5105.39,5055.4,5115.41,5015.42,5155.43,5095.44,5025.45,5135.46,5035.47,5135.48,5115.49,5055.5,5135.51,5025.52,5125.53,5085.54,5035.55,5155.56,5025.57,5115.58,5125.59,5075.6,5135.61,5035.62,5165.63,5105.64,5045.65,5165.66,5035.67,5085.68,5105.69,5055.7,5155.71,5045.72,5135.73,5115.74,5035.75,5145.76,5025.77,5085.78,5115.79,5075.8,5155.81,5015.82,5125.83,5105.84,5015.85,5165.86,5015.87,5085.88,5105.89,5045.9,5155.91,5035.92,5095.93,5095.94,5045.95,5175.96,5025.97,5115.98,5115.99,5056,5166.01,5016.02,5106.03,5136.04,5036.05,5176.06,5066.07,5086.08,5126.09,5046.1,5186.11,5006.12,5096.13,5106.14,5046.15,5146.16,5036.17,5096.18,5106.19,5036.2,5166.21,5046.22,5066.23,5106.24,5066.25,5196.26,5016.27,5116.28,5106.29,5056.3,5206.31,5036.32,5096.33,5126.34,5046.35,5186.36,5046.37,5116.38,5116.39,5046.4,5176.41,5046.42,5086.43,5116.44,5066.45,5196.46,5066.47,5116.48,5136.49,5046.5,5216.51,5036.52,5116.53,5116.54,5026.55,5196.56,5026.57,5096.58,5116.59,5056.6,5206.61,5056.62,5096.63,5116.64,5036.65,5196.66,5056.67,5096.68,5116.69,5056.7,5166.71,5076.72,5116.73,5146.74,5036.75,5206.76,5066.77,5136.78,5126.79,5046.8,5216.81,5056.82,5086.83,5126.84,5026.85,5206.86,5066.87,5106.88,5126.89,5046.9,5206.91,5076.92,5116.93,5116.94,5036.95,5196.96,5056.97,5116.98,5126.99,5047,5227.01,5077.02,5107.03,5117.04,5027.05,5197.06,5097.07,5107.08,5127.09,5047.1,5207.11,5097.12,5087.13,5127.14,5067.15,5197.16,5117.17,5097.18,5137.19,5057.2,5197.21,5087.22,5087.23,5127.24,5037.25,5227.26,5107.27,5087.28,5117.29,5057.3,5197.31,5117.32,5077.33,5127.34,5057.35,5197.36,5117.37,5087.38,5127.39,5037.4,5207.41,5117.42,5077.43,5137.44,5047.45,5217.46,5127.47,5077.48,5117.49,5037.5,5187.51,5107.52,5077.53,5127.54,5057.55,5197.56,5117.57,5077.58,5127.59,5077.6,5187.61,5107.62,5077.63,5127.64,5037.65,5187.66,5137.67,5067.68,5147.69,5027.7,5177.71,5117.72,5057.73,5127.74,5057.75,5167.76,5107.77,5057.78,5137.79,5027.8,5157.81,5117.82,5067.83,5127.84,5037.85,5167.86,5117.87,5067.88,5127.89,5027.9,5167.91,5117.92,5057.93,5147.94,5037.95,5177.96,5117.97,5057.98,5137.99,5048,5178.01,5128.02,5028.03,5138.04,5008.05,5138.06,5088.07,5038.08,5138.09,5028.1,5148.11,5108.12,5058.13,5148.14,5028.15,5148.16,5108.17,5038.18,5118.19,5028.2,5118.21,5108.22,5068.23,5108.24,5038.25,5128.26,5118.27,5068.28,5128.29,5038.3,5128.31,5118.32,5058.33,5128.34,5038.35,5138.36,5118.37,5028.38,5138.39,5018.4,5108.41,5108.42,5058.43,5148.44,5028.45,5108.46,5108.47,5048.48,5148.49,5048.5,5118.51,5118.52,5048.53,5158.54,5068.55,5088.56,5108.57,5058.58,5128.59,5038.6,5108.61,5108.62,5058.63,5148.64,5028.65,5098.66,5128.67,5048.68,5158.69,5058.7,5078.71,5108.72,5048.73,5168.74,5018.75,5098.76,5128.77,5058.78,5138.79,5028.8,5098.81,5108.82,5058.83,5138.84,5058.85,5108.86,5128.87,5048.88,5178.89,5058.9,5088.91,5118.92,5078.93,5168.94,5038.95,5088.96,5108.97,5068.98,5158.99,5059,5079.01,5119.02,5079.03,5159.04,5049.05,5059.06,5129.07,5079.08,5169.09,5049.1,5069.11,5109.12,5049.13,5179.14,5049.15,5119.16,5109.17,5049.18,5189.19,5029.2,5079.21,5119.22,5079.23,5159.24,5059.25,5079.26,5119.27,5079.28,5169.29,5069.3,5059.31,5129.32,5069.33,5179.34,5079.35,5099.36,5109.37,5059.38,5189.39,5059.4,5079.41,5109.42,5059.43,5189.44,5079.45,5089.46,5129.47,5059.48,5199.49,5079.5,5109.51,5129.52,5049.53,5179.54,5069.55,5089.56,5129.57,5069.58,5209.59,5069.6,5079.61,5139.62,5049.63,5179.64,5099.65,5079.66,5109.67,5059.68,5209.69,5089.7,5059.71,5119.72,5049.73,5199.74,5099.75,5109.76,5129.77,5049.78,5199.79,5069.8,5089.81,5129.82,5059.83,5199.84,5109.85,5069.86,5119.87,5039.88,5189.89,5109.9,5079.91,5119.92,5059.93,5179.94,5109.95,5089.96,5129.97,5059.98,5189.99,51310,50510.01,51310.02,50510.03,51510.04,50910.05,51010.06,51210.07,50510.08,51910.09,51110.1,50810.11,51110.12,50410.13,51910.14,50810.15,50910.16,51110.17,50510.18,51710.19,51010.2,51110.21,51110.22,50510.23,51710.24,51010.25,50710.26,51110.27,50510.28,51810.29,51010.3,50710.31,51210.32,50310.33,51910.34,50910.35,50810.36,51110.37,50710.38,51810.39,51210.4,50810.41,51210.42,50710.43,51910.44,51210.45,50910.46,51310.47,50210.48,51610.49,51510.5,50810.51,51010.52,50810.53,51810.54,51310.55,50710.56,51410.57,50610.58,51910.59,51410.6,50710.61,51210.62,50510.63,51710.64,50910.65,50810.66,51210.67,50410.68,51710.69,51010.7,50610.71,51510.72,50410.73,51910.74,51310.75,50710.76,51210.77,50410.78,51910.79,51010.8,50610.81,51210.82,50510.83,51610.84,51010.85,50610.86,51310.87,50510.88,51710.89,51110.9,50710.91,51210.92,50410.93,51910.94,51210.95,50810.96,51210.97,50410.98,51810.99,51311,50511.01,51311.02,50411.03,51811.04,51011.05,50111.06,51311.07,50411.08,51911.09,51111.1,50511.11,51211.12,50311.13,51811.14,51511.15,50411.16,51611.17,50411.18,51811.19,51111.2,50511.21,51411.22,50311.23,51511.24,51311.25,50411.26,51211.27,50211.28,51911.29,51111.3,50511.31,51311.32,50311.33,51711.34,51211.35,50211.36,51511.37,50011.38,51611.39,51311.4,50411.41,51311.42,50211.43,51911.44,51211.45,50311.46,51311.47,50211.48,51611.49,51011.5,50411.51,51311.52,50211.53,51711.54,51311.55,50411.56,51311.57,49911.58,51611.59,51111.6,50211.61,51511.62,50011.63,51611.64,51311.65,50211.66,51511.67,50011.68,51511.69,51211.7,50311.71,51411.72,50111.73,51611.74,51311.75,50411.76,51311.77,50211.78,51611.79,51011.8,50311.81,51611.82,49811.83,51711.84,50811.85,50111.86,51311.87,50011.88,51711.89,51111.9,50211.91,51511.92,49911.93,51511.94,51111.95,50411.96,51611.97,50211.98,51311.99,51012,50212.01,51512.02,49812.03,51512.04,51412.05,49912.06,51612.07,50012.08,51512.09,51212.1,50212.11,51512.12,49712.13,51412.14,51212.15,50212.16,51412.17,49912.18,51612.19,51412.2,50212.21,51312.22,49912.23,51612.24,51112.25,49912.26,51612.27,50012.28,51412.29,51312.3,50212.31,51512.32,50012.33,51512.34,51012.35,50112.36,51612.37,49712.38,51512.39,51312.4,50012.41,51512.42,50112.43,51512.44,51312.45,50012.46,51512.47,49812.48,51412.49,51112.5,49912.51,51612.52,49912.53,51512.54,51412.55,50012.56,51512.57,49912.58,51512.59,51012.6,50212.61,51512.62,50212.63,51312.64,51212.65,50112.66,51412.67,50012.68,51112.69,51212.7,49912.71,51612.72,49912.73,51512.74,51112.75,50212.76,51612.77,50012.78,51312.79,51312.8,50312.81,51712.82,50012.83,51312.84,51012.85,50312.86,51612.87,49812.88,51312.89,51112.9,49912.91,51512.92,49812.93,51412.94,51112.95,50112.96,51312.97,49812.98,51312.99,51113,50013.01,51513.02,50013.03,51313.04,51313.05,50113.06,51513.07,50213.08,51213.09,51213.1,50213.11,51513.12,50113.13,51513.14,51313.15,50013.16,51613.17,50313.18,51313.19,51313.2,50213.21,51713.22,49813.23,51113.24,51213.25,50013.26,51513.27,50013.28,51213.29,51313.3,50113.31,51513.32,49913.33,51313.34,51313.35,49913.36,51613.37,49913.38,51213.39,51413.4,50313.41,51413.42,50113.43,51313.44,51213.45,50013.46,51513.47,50013.48,51413.49,51413.5,50013.51,51613.52,49913.53,51213.54,51513.55,50313.56,51313.57,50113.58,51513.59,51013.6,50013.61,51713.62,50013.63,51313.64,51313.65,50113.66,51413.67,50013.68,51113.69,51213.7,50213.71,51613.72,50013.73,51213.74,51013.75,49913.76,51613.77,50013.78,51313.79,51113.8,50313.81,51413.82,50213.83,51513.84,50913.85,50213.86,51613.87,49813.88,51413.89,51513.9,50113.91,51313.92,49913.93,51513.94,51313.95,50113.96,51413.97,50113.98,51213.99,51214,50314.01,51514.02,50014.03,51414.04,51214.05,50214.06,51514.07,49814.08,51414.09,51314.1,50114.11,51314.12,50014.13,51314.14,51214.15,50314.16,51314.17,50114.18,51414.19,51114.2,50214.21,51214.22,50114.23,51514.24,51214.25,50414.26,51414.27,50014.28,51514.29,51214.3,50414.31,51314.32,50014.33,51314.34,51114.35,50314.36,51214.37,50114.38,51614.39,51314.4,50214.41,51314.42,50214.43,51314.44,51014.45,50314.46,51514.47,50414.48,51414.49,51014.5,50514.51,51514.52,50214.53,51514.54,51014.55,50514.56,51514.57,50414.58,51414.59,51214.6,50514.61,51414.62,50314.63,51514.64,51114.65,50514.66,51314.67,50214.68,51214.69,51314.7,50514.71,51314.72,50314.73,51514.74,51214.75,50414.76,51314.77,50314.78,51514.79,51214.8,50514.81,51314.82,50114.83,51514.84,51014.85,50514.86,51214.87,50314.88,51714.89,51014.9,50614.91,51214.92,50314.93,51314.94,51114.95,50514.96,51414.97,50514.98,51414.99,51115,50415.01,51315.02,50315.03,51515.04,51215.05,51015.06,51115.07,50215.08,51815.09,51015.1,50815.11,51215.12,50715.13,51615.14,51015.15,50715.16,51315.17,50415.18,51715.19,51115.2,50815.21,51115.22,50315.23,51815.24,50715.25,50515.26,51315.27,50515.28,51815.29,51115.3,50715.31,51415.32,50215.33,51715.34,51215.35,50815.36,51215.37,50415.38,51615.39,51015.4,50715.41,51415.42,50615.43,51515.44,51215.45,50715.46,51315.47,50315.48,51515.49,51115.5,50615.51,51415.52,50415.53,51815.54,51115.55,50715.56,51215.57,50515.58,51715.59,51015.6,50815.61,51015.62,50415.63,51815.64,51215.65,50715.66,51215.67,50315.68,51715.69,51115.7,50515.71,51215.72,50415.73,51815.74,51115.75,50715.76,51415.77,50515.78,51915.79,50715.8,50815.81,51315.82,50915.83,51515.84,51215.85,51015.86,51115.87,50415.88,51915.89,51215.9,50415.91,53415.92,49115.93,52315.94,51115.95,51015.96,51215.97,50915.98,49815.99,50816,50816.01,51816.02,49916.03,52416.04,51216.05,51216.06,50916.07,50716.08,52416.09,48016.1,51016.11,51416.12,50216.13,51816.14,50416.15,52016.16,52016.17,52016.18,51916.19,51316.2,51316.21,51416.22,50516.23,50316.24,51216.25,51116.26,51316.27,50516.28,51816.29,52216.3,53416.31,52116.32,51316.33,47816.34,53516.35,51816.36,51816.37,50416.38,52316.39,48816.4,51216.41,51316.42,52916.43,52616.44,49616.45,51016.46,51616.47,52716.48,52316.49,52116.5,50616.51,51416.52,50016.53,50016.54,50716.55,51116.56,51616.57,48916.58,48416.59,51516.6,51516.61,51316.62,51916.63,48716.64,51316.65,51016.66,51016.67,50716.68,54116.69,51816.7,51316.71,51916.72,51216.73,52316.74,47716.75,50916.76,52716.77,49216.78,51916.79,51516.8,50916.81,51816.82,50516.83,50916.84,50916.85,50916.86,51016.87,50616.88,51816.89,51016.9,50416.91,51116.92,50916.93,51716.94,51016.95,50416.96,51216.97,50316.98,51916.99,50317,51217.01,51417.02,50717.03,52317.04,51017.05,49117.06,51017.07,50417.08,51917.09,51117.1,51217.11,49517.12,50717.13,52417.14,51017.15,51417.16,51217.17,50417.18,52417.19,50217.2,48717.21,48817.22,51017.23,52017.24,50517.25,50817.26,51317.27,51017.28,51317.29,50817.3,50817.31,51217.32,52517.33,52517.34,50817.35,51417.36,50817.37,50417.38,51917.39,50717.4,50917.41,51817.42,50217.43,51917.44,51517.45,51117.46,51417.47,50917.48,52017.49,50817.5,51017.51,51217.52,50717.53,51917.54,50817.55,50117.56,51617.57,50817.58,51617.59,50717.6,50917.61,51217.62,50617.63,51717.64,50517.65,50817.66,51217.67,50317.68,51817.69,50617.7,50717.71,51217.72,50717.73,51817.74,50517.75,50417.76,51217.77,50417.78,51817.79,50517.8,50517.81,51117.82,50517.83,51817.84,50417.85,50717.86,51217.87,50517.88,51817.89,50517.9,50717.91,51017.92,50517.93,51617.94,50317.95,50717.96,51217.97,50617.98,51817.99,50218,51018.01,51218.02,50318.03,51518.04,50618.05,50818.06,51218.07,50418.08,51618.09,50318.1,50818.11,51018.12,50218.13,51518.14,50418.15,50618.16,51118.17,50618.18,51318.19,50318.2,50818.21,51018.22,50718.23,51418.24,50518.25,51018.26,51218.27,50518.28,51518.29,50518.3,51318.31,51218.32,50418.33,51418.34,50218.35,50718.36,51018.37,50418.38,51518.39,50418.4,50718.41,51118.42,50618.43,51518.44,50218.45,51118.46,50818.47,50618.48,51318.49,50418.5,50918.51,51218.52,50518.53,51318.54,50318.55,51118.56,51018.57,50418.58,51318.59,50418.6,51118.61,51118.62,50418.63,51218.64,50318.65,51118.66,51218.67,50718.68,51218.69,50518.7,51118.71,51018.72,50518.73,51318.74,50218.75,51418.76,51218.77,50518.78,51218.79,50218.8,51018.81,51218.82,50218.83,51518.84,50518.85,51418.86,51018.87,50418.88,51518.89,50318.9,51418.91,51318.92,50118.93,51318.94,50418.95,51518.96,50718.97,51418.98,51018.99,50319,50619.01,51219.02,50819.03,51919.04,49919.05,51519.06,51519.07,50919.08,51219.09,51219.1,52919.11,51219.12,50619.13,51819.14,49519.15,51419.16,50719.17,50919.18,51719.19,49819.2,53119.21,51119.22,50519.23,51019.24,49319.25,52219.26,51919.27,50119.28,53119.29,50219.3,53419.31,50919.32,51219.33,51319.34,51219.35,50819.36,51919.37,50119.38,47619.39,51419.4,52119.41,49919.42,50819.43,51219.44,50719.45,52719.46,49219.47,51219.48,52319.49,50519.5,52219.51,51419.52,50119.53,52419.54,49519.55,52419.56,51619.57,49719.58,51419.59,50219.6,51519.61,51419.62,47619.63,51819.64,49719.65,52219.66,51219.67,51919.68,51319.69,51019.7,51019.71,52619.72,50419.73,52719.74,52619.75,49519.76,51619.77,49819.78,51919.79,50719.8,52319.81,49619.82,47219.83,50819.84,50919.85,52419.86,51419.87,49719.88,49819.89,47619.9,52719.91,51919.92,51319.93,51119.94,50319.95,52019.96,51419.97,47019.98,51119.99,48820,52520.01,49920.02,49920.03,52320.04,49620.05,52620.06,50420.07,49120.08,52020.09,50720.1,52720.11,49920.12,50820.13,51920.14,50320.15,52320.16,50320.17,50820.18,52920.19,47220.2,51120.21,51720.22,51220.23,51220.24,50320.25,52820.26,50720.27,50820.28,51320.29,51220.3,53220.31,51120.32,50520.33,51620.34,51720.35,53920.36,51020.37,50420.38,51320.39,50020.4,52620.41,50820.42,50520.43,50220.44,50920.45,52820.46,52020.47,49920.48,51020.49,49920.5,52720.51,50720.52,51820.53,52020.54,49920.55,51520.56,51320.57,50720.58,52120.59,50120.6,52420.61,51420.62,51220.63,51020.64,48720.65,52520.66,51020.67,50520.68,51320.69,50220.7,52520.71,51020.72,50920.73,49420.74,50520.75,52820.76,50820.77,51820.78,52420.79,49820.8,52720.81,50820.82,50120.83,51820.84,50720.85,52620.86,49420.87,50920.88,50220.89,50620.9,52620.91,50520.92,49920.93,52720.94,50220.95,52720.96,50320.97,50220.98,51720.99,50221,52621.01,49621.02,50721.03,51521.04,49921.05,52821.06,50221.07,50821.08,51421.09,49421.1,52421.11,50221.12,50821.13,51621.14,50021.15,52421.16,50021.17,50821.18,51321.19,50021.2,52221.21,50321.22,50821.23,51521.24,50121.25,52221.26,50021.27,50521.28,51421.29,50221.3,52121.31,50221.32,50921.33,51621.34,50221.35,52421.36,50221.37,50821.38,51221.39,50121.4,52321.41,50221.42,50421.43,51521.44,50221.45,52321.46,50221.47,50921.48,51521.49,50021.5,52221.51,50121.52,50821.53,51521.54,49921.55,52321.56,49921.57,50721.58,51521.59,50221.6,52021.61,50121.62,50721.63,51521.64,49821.65,52221.66,50121.67,50821.68,51421.69,49921.7,52321.71,50121.72,50621.73,51321.74,50021.75,52321.76,49921.77,50721.78,51621.79,49921.8,52121.81,50121.82,50821.83,51421.84,50021.85,52321.86,50021.87,50421.88,51221.89,49921.9,52121.91,49721.92,50421.93,51521.94,49921.95,52221.96,49921.97,50721.98,51221.99,50222,52022.01,49922.02,50822.03,51522.04,49822.05,52022.06,50022.07,50722.08,51322.09,50022.1,52022.11,49822.12,50722.13,51522.14,50122.15,52122.16,50022.17,50822.18,51422.19,50122.2,51922.21,50022.22,50822.23,51522.24,49722.25,51922.26,49922.27,51222.28,51222.29,50022.3,52022.31,50022.32,51022.33,51422.34,49822.35,51822.36,50022.37,50822.38,51222.39,49722.4,52022.41,49922.42,50922.43,50722.44,50022.45,51922.46,50022.47,50822.48,51322.49,50022.5,52122.51,49622.52,51322.53,51222.54,49522.55,52022.56,51422.57,52422.58,52722.59,51822.6,52822.61,50322.62,50322.63,51722.64,50022.65,51822.66,48522.67,50422.68,48922.69,51622.7,52322.71,49622.72,51122.73,50222.74,50822.75,50622.76,49622.77,50222.78,51922.79,48722.8,52122.81,50222.82,50722.83,43922.84,49922.85,52922.86,49922.87,50822.88,51822.89,50422.9,52722.91,50722.92,52022.93,52522.94,50322.95,52922.96,49822.97,51622.98,49122.99,48423,51923.01,50323.02,51923.03,51723.04,50023.05,52823.06,52423.07,49823.08,51923.09,50523.1,52123.11,48523.12,50923.13,51723.14,47523.15,48223.16,49823.17,50823.18,51423.19,49723.2,51323.21,50523.22,52123.23,51523.24,50323.25,52123.26,49423.27,50423.28,51923.29,49623.3,52623.31,49923.32,51023.33,51323.34,48623.35,51423.36,51023.37,50623.38,52823.39,51823.4,52423.41,49723.42,51223.43,51023.44,49423.45,48523.46,48423.47,52623.48,51923.49,49823.5,51423.51,49323.52,50923.53,51523.54,50323.55,50523.56,46623.57,51323.58,52023.59,49723.6,52023.61,49923.62,49123.63,51223.64,49723.65,52123.66,49823.67,47523.68,51723.69,50423.7,51823.71,50123.72,51323.73,52123.74,49923.75,49223.76,50423.77,51023.78,50223.79,51223.8,51623.81,49423.82,52223.83,51923.84,49923.85,51723.86,48723.87,51723.88,51823.89,50023.9,52123.91,48523.92,50823.93,51323.94,49923.95,51823.96,50023.97,52123.98,49923.99,49824,52324.01,50524.02,50724.03,51324.04,49724.05,51924.06,49524.07,51224.08,52624.09,50124.1,52424.11,51624.12,51524.13,51624.14,49824.15,51724.16,49924.17,51524.18,51424.19,50024.2,51724.21,51124.22,50324.23,51724.24,49724.25,51524.26,50124.27,50624.28,51524.29,50124.3,51824.31,50124.32,50624.33,51524.34,50124.35,52324.36,49624.37,51124.38,51524.39,50224.4,51424.41,50424.42,50924.43,51324.44,49524.45,52124.46,49724.47,49124.48,51224.49,50324.5,52124.51,49924.52,50924.53,51524.54,50324.55,51024.56,49924.57,50924.58,52324.59,50424.6,52124.61,49924.62,51124.63,50724.64,50024.65,51724.66,49824.67,50924.68,50724.69,50224.7,51924.71,47824.72,51424.73,51524.74,49924.75,52024.76,50424.77,50524.78,51524.79,50324.8,51824.81,50024.82,51024.83,51424.84,50024.85,51724.86,50124.87,50924.88,51024.89,50224.9,51824.91,50224.92,50924.93,51124.94,50324.95,51724.96,50224.97,50824.98,51024.99,50225,51925.01,50325.02,50725.03,51025.04,50125.05,51625.06,50225.07,50825.08,51025.09,50425.1,51925.11,50025.12,50925.13,51325.14,50125.15,51725.16,50325.17,50925.18,51225.19,50425.2,51925.21,50225.22,50725.23,51225.24,50625.25,51625.26,50425.27,50825.28,51225.29,50425.3,51625.31,50325.32,51025.33,51025.34,50725.35,51525.36,50225.37,50925.38,51125.39,50425.4,51625.41,50425.42,50625.43,51125.44,50325.45,51725.46,50425.47,50925.48,51225.49,50425.5,51725.51,50625.52,50625.53,51125.54,50325.55,51525.56,50425.57,50625.58,51025.59,50325.6,51625.61,50425.62,50525.63,51225.64,50425.65,51825.66,50325.67,50725.68,51025.69,50425.7,51725.71,50525.72,50725.73,51125.74,51625.75,51625.76,47825.77,52025.78,51425.79,50625.8,51425.81,50425.82,50825.83,50825.84,50725.85,52325.86,50525.87,47725.88,51925.89,49125.9,48525.91,50625.92,51425.93,48725.94,50525.95,52125.96,50125.97,50825.98,51825.99,46926,52526.01,46426.02,51326.03,51326.04,49226.05,50526.06,50726.07,48826.08,49926.09,50526.1,53826.11,50526.12,51126.13,52226.14,50726.15,53626.16,50226.17,47626.18,53026.19,49426.2,52426.21,50426.22,50726.23,51626.24,50226.25,50526.26,49926.27,50826.28,55626.29,52726.3,52926.31,50726.32,50226.33,51626.34,50726.35,51126.36,51226.37,51026.38,51526.39,51326.4,50326.41,48526.42,50626.43,51826.44,49326.45,51026.46,51126.47,51726.48,53126.49,47626.5,52426.51,51526.52,50826.53,50526.54,49926.55,52226.56,48826.57,49226.58,50426.59,50826.6,53926.61,50926.62,50826.63,48626.64,50726.65,54026.66,51026.67,49926.68,51926.69,49526.7,53126.71,49826.72,50726.73,51126.74,50726.75,51826.76,51426.77,51026.78,51026.79,48026.8,53726.81,48926.82,51826.83,51226.84,50626.85,50226.86,50726.87,51526.88,50426.89,51326.9,50826.91,50926.92,50626.93,51026.94,50726.95,53226.96,51526.97,50626.98,51526.99,48327,51927.01,51827.02,50627.03,50327.04,50827.05,50527.06,51127.07,50827.08,50627.09,50627.1,50527.11,52027.12,51027.13,51527.14,49327.15,52427.16,50027.17,50927.18,50827.19,50527.2,52627.21,50027.22,50427.23,51327.24,51027.25,51527.26,51027.27,50827.28,50227.29,50327.3,52327.31,49827.32,50927.33,52127.34,49627.35,52627.36,51127.37,50427.38,51827.39,48827.4,52427.41,51327.42,50427.43,49127.44,50727.45,52427.46,50927.47,49727.48,51527.49,47527.5,51527.51,50727.52,51027.53,51327.54,50227.55,52127.56,51227.57,50427.58,52027.59,50627.6,51727.61,51427.62,50827.63,51427.64,50427.65,50827.66,50927.67,50727.68,50827.69,51427.7,52427.71,50827.72,50727.73,51227.74,50327.75,52427.76,51427.77,50227.78,51727.79,50227.8,51627.81,51427.82,50827.83,51827.84,50127.85,51927.86,51127.87,50627.88,51427.89,50427.9,51627.91,51127.92,51327.93,51227.94,49027.95,52027.96,51327.97,50227.98,51327.99,50528,51828.01,51428.02,50728.03,51528.04,50128.05,50628.06,51428.07,50428.08,51428.09,50028.1,51628.11,51328.12,50628.13,51428.14,50428.15,51428.16,51228.17,50528.18,51228.19,50428.2,51528.21,51228.22,50328.23,51228.24,50228.25,51428.26,51328.27,50328.28,51428.29,50328.3,51528.31,51028.32,50228.33,51328.34,50028.35,51428.36,51128.37,50028.38,50928.39,50428.4,51328.41,51428.42,49728.43,51028.44,50328.45,50828.46,50728.47,49428.48,49928.49,55128.5,54528.51,53728.52,42128.53,52728.54,50528.55,49328.56,50628.57,55628.58,43528.59,46828.6,55728.61,52428.62,49528.63,52128.64,44728.65,51128.66,50728.67,50428.68,50228.69,45928.7,51828.71,51828.72,47828.73,52228.74,53328.75,44728.76,52828.77,46728.78,50128.79,52928.8,50128.81,50828.82,50128.83,50828.84,51328.85,50528.86,45128.87,48828.88,50528.89,49428.9,50828.91,53628.92,49228.93,54328.94,49328.95,48828.96,52628.97,51128.98,48228.99,41829,50229.01,55529.02,47929.03,57629.04,55529.05,51929.06,46929.07,49729.08,59829.09,66329.1,55629.11,53629.12,51529.13,52329.14,49129.15,49229.16,49129.17,49029.18,48029.19,51929.2,51129.21,54329.22,47629.23,54329.24,48729.25,39329.26,53829.27,45429.28,48429.29,51529.3,50529.31,46929.32,39129.33,58729.34,48629.35,49729.36,63429.37,52129.38,54729.39,70029.4,54329.41,52629.42,52029.43,55829.44,51329.45,53329.46,54429.47,45029.48,37829.49,40629.5,51029.51,55729.52,62429.53,54729.54,57929.55,51429.56,44729.57,45529.58,49929.59,50929.6,52929.61,51129.62,51329.63,50329.64,52229.65,31829.66,54729.67,52129.68,61729.69,60129.7,50729.71,55529.72,47629.73,55829.74,60829.75,50329.76,53329.77,48729.78,52629.79,55729.8,62529.81,53129.82,51129.83,51929.84,52329.85,46429.86,53029.87,51529.88,55429.89,46729.9,51729.91,50929.92,55229.93,55929.94,51929.95,51129.96,51229.97,51229.98,56129.99,53930,53130.01,51330.02,49830.03,41130.04,51930.05,49330.06,52930.07,48830.08,53730.09,53130.1,41630.11,50430.12,51730.13,50930.14,50330.15,51230.16,51330.17,49930.18,52930.19,52130.2,50930.21,49130.22,49230.23,54030.24,51830.25,50930.26,50330.27,51030.28,51530.29,51930.3,51230.31,51330.32,51330.33,52230.34,51730.35,51130.36,54630.37,49630.38,52330.39,51830.4,50830.41,51530.42,50430.43,53330.44,55930.45,49630.46,50830.47,50930.48,52230.49,51230.5,50130.51,51430.52,50730.53,45530.54,47930.55,52230.56,51330.57,51930.58,52530.59,52330.6,50730.61,51130.62,50830.63,52430.64,51530.65,50830.66,50730.67,50730.68,52030.69,51830.7,50730.71,51630.72,50530.73,51530.74,51230.75,50530.76,51330.77,50330.78,52630.79,52730.8,50830.81,51130.82,50330.83,51630.84,51230.85,50530.86,51330.87,50430.88,51930.89,51830.9,51930.91,52130.92,50930.93,51630.94,51030.95,50530.96,51130.97,50530.98,51330.99,51031,50231.01,51331.02,50531.03,50931.04,51131.05,50431.06,51231.07,50531.08,51131.09,51231.1,50331.11,51431.12,50631.13,51531.14,51331.15,50431.16,51231.17,50531.18,51231.19,51331.2,50431.21,51231.22,50531.23,51031.24,51231.25,50731.26,51331.27,50431.28,51331.29,51331.3,50531.31,51231.32,50531.33,51031.34,51131.35,50431.36,51331.37,50531.38,51131.39,51131.4,50731.41,51131.42,50731.43,50831.44,51131.45,50431.46,51331.47,50531.48,50931.49,51231.5,50631.51,51131.52,50431.53,50931.54,51131.55,50431.56,51331.57,48031.58,51531.59,50431.6,53831.61,52731.62,45631.63,52231.64,51931.65,51531.66,51631.67,53231.68,48331.69,46631.7,47531.71,50531.72,34431.73,46131.74,51531.75,43631.76,51131.77,56031.78,50331.79,46131.8,46931.81,55131.82,46531.83,49031.84,51531.85,49231.86,52131.87,46231.88,50531.89,51031.9,56331.91,46631.92,49931.93,54631.94,44031.95,51931.96,43231.97,51131.98,53731.99,53332,47732.01,51932.02,51232.03,50432.04,47332.05,38232.06,55632.07,52732.08,46432.09,53632.1,45932.11,52532.12,44632.13,53432.14,57932.15,59932.16,47132.17,43432.18,48332.19,54532.2,52332.21,40932.22,50832.23,53432.24,56032.25,52332.26,50632.27,52232.28,51632.29,47332.3,57132.31,52432.32,46532.33,57232.34,44532.35,53432.36,51232.37,52732.38,49432.39,52732.4,49732.41,52432.42,49732.43,45632.44,57232.45,54332.46,58132.47,47232.48,51132.49,51532.5,47332.51,46432.52,54232.53,42432.54,52432.55,44432.56,51332.57,51032.58,59432.59,52832.6,51932.61,49932.62,50932.63,49732.64,50832.65,57232.66,55732.67,57232.68,52232.69,42332.7,51232.71,49432.72,50832.73,46932.74,51032.75,36332.76,54232.77,47132.78,49632.79,51632.8,50832.81,45132.82,45232.83,51832.84,53232.85,48032.86,52532.87,52532.88,50832.89,53932.9,51232.91,45132.92,51232.93,50732.94,51632.95,59032.96,56132.97,52132.98,50432.99,49733,50733.01,53733.02,51933.03,43733.04,52533.05,51933.06,52433.07,50833.08,50133.09,51533.1,47533.11,52433.12,51933.13,50633.14,51033.15,39033.16,53133.17,51533.18,48033.19,51333.2,48433.21,50233.22,50833.23,52033.24,49633.25,48933.26,51833.27,52133.28,50633.29,52233.3,50433.31,50033.32,53633.33,51033.34,50733.35,50933.36,49833.37,51233.38,50433.39,51533.4,50533.41,52133.42,50533.43,55333.44,53233.45,50733.46,51933.47,51233.48,50433.49,51633.5,50233.51,42033.52,53433.53,45633.54,52033.55,50633.56,42333.57,52733.58,50633.59,51233.6,50733.61,52433.62,51333.63,50233.64,52333.65,52133.66,52433.67,51633.68,50333.69,50433.7,50733.71,51933.72,51433.73,50433.74,52633.75,50633.76,51633.77,40733.78,51533.79,51433.8,49833.81,51833.82,51233.83,50333.84,51133.85,51733.86,50433.87,50233.88,48733.89,51633.9,50733.91,53233.92,49833.93,51333.94,51333.95,50633.96,51333.97,50433.98,50433.99,51334,50334.01,51634.02,50834.03,51634.04,50934.05,50134.06,51034.07,51234.08,50434.09,51134.1,50334.11,51234.12,51134.13,50434.14,51334.15,50234.16,51034.17,51334.18,50434.19,51334.2,50434.21,51134.22,51234.23,50334.24,51434.25,50334.26,51034.27,51134.28,50134.29,51534.3,50434.31,51234.32,51234.33,50234.34,51334.35,50434.36,51334.37,51034.38,50534.39,51234.4,50234.41,51334.42,51234.43,50534.44,50734.45,50434.46,51734.47,52234.48,48734.49,55634.5,53434.51,51934.52,52134.53,49734.54,51034.55,46334.56,52634.57,54534.58,50334.59,49934.6,51434.61,50434.62,51034.63,50034.64,41934.65,51634.66,51934.67,52334.68,44434.69,50134.7,50234.71,51834.72,54734.73,55034.74,52434.75,42534.76,46634.77,52834.78,47834.79,51734.8,47934.81,43934.82,62934.83,53934.84,52434.85,55234.86,58334.87,52434.88,51934.89,53234.9,42834.91,49634.92,54434.93,45534.94,57034.95,56934.96,58234.97,47134.98,53134.99,42235,50435.01,52535.02,51635.03,58335.04,46335.05,53035.06,51135.07,50135.08,53635.09,55135.1,51435.11,52435.12,48635.13,47035.14,48235.15,54035.16,58635.17,55735.18,45535.19,66735.2,55335.21,53435.22,51135.23,45035.24,48435.25,52735.26,44235.27,47435.28,46335.29,58235.3,46435.31,40135.32,45735.33,50835.34,54635.35,55935.36,41835.37,54435.38,51135.39,48435.4,47835.41,52235.42,50935.43,61135.44,52935.45,50835.46,41135.47,37535.48,50835.49,54135.5,47735.51,49935.52,47235.53,69135.54,62135.55,48835.56,35235.57,45335.58,50835.59,57135.6,42335.61,60135.62,54235.63,41635.64,56435.65,44835.66,56935.67,49535.68,43235.69,54535.7,49535.71,49235.72,58035.73,62735.74,53935.75,50735.76,51935.77,48835.78,38635.79,51435.8,49635.81,46435.82,42935.83,56235.84,54235.85,49635.86,52435.87,52635.88,54535.89,55135.9,49335.91,50635.92,51635.93,49035.94,30235.95,50235.96,49035.97,51835.98,49135.99,53236,47436.01,40636.02,52736.03,49436.04,53536.05,48736.06,53436.07,53636.08,50736.09,53636.1,43636.11,50836.12,53036.13,49736.14,52636.15,49536.16,48736.17,53236.18,49036.19,50136.2,49236.21,50436.22,51936.23,47636.24,53036.25,47436.26,46536.27,52436.28,45736.29,53736.3,47736.31,51036.32,51936.33,49436.34,53136.35,50236.36,50336.37,53136.38,46236.39,47736.4,50936.41,50436.42,51836.43,49436.44,53136.45,49636.46,50536.47,51036.48,49936.49,46836.5,47536.51,51736.52,50836.53,49436.54,53036.55,49736.56,50136.57,51836.58,49536.59,53136.6,50536.61,51936.62,53136.63,49736.64,52736.65,50636.66,49736.67,51636.68,49436.69,52736.7,50336.71,50636.72,51836.73,49636.74,52836.75,50836.76,51336.77,51636.78,49836.79,52836.8,50236.81,50536.82,51736.83,49836.84,52836.85,50036.86,50436.87,51736.88,49836.89,52936.9,50436.91,50536.92,51836.93,49936.94,52836.95,50236.96,50536.97,51936.98,49636.99,52837,50237.01,50337.02,51837.03,49837.04,52937.05,50337.06,50437.07,51837.08,49737.09,52937.1,50237.11,50637.12,51837.13,49737.14,52937.15,50137.16,50637.17,51637.18,49837.19,53137.2,49937.21,50337.22,51937.23,49737.24,53137.25,49437.26,51137.27,45237.28,43337.29,58237.3,56337.31,55937.32,51437.33,52337.34,53237.35,48837.36,49137.37,54037.38,55937.39,56137.4,47637.41,42237.42,53537.43,41637.44,55037.45,48937.46,54137.47,49137.48,50537.49,51137.5,52137.51,47137.52,49937.53,52137.54,53337.55,50637.56,47337.57,56037.58,42437.59,55337.6,55637.61,50437.62,44037.63,52137.64,45137.65,53537.66,40737.67,58537.68,42637.69,55037.7,54737.71,55037.72,46937.73,51637.74,55337.75,55037.76,54437.77,49637.78,54337.79,52437.8,56837.81,53937.82,52337.83,53137.84,51437.85,48237.86,54337.87,45737.88,47637.89,56537.9,45237.91,64237.92,54937.93,52737.94,45237.95,54637.96,49137.97,36037.98,57237.99,33538,45438.01,53138.02,47738.03,39838.04,46838.05,49638.06,53038.07,46038.08,55238.09,49238.1,44438.11,56738.12,59438.13,55738.14,55138.15,50538.16,41138.17,46738.18,47638.19,43838.2,48838.21,55038.22,53738.23,41538.24,52938.25,51538.26,56238.27,49938.28,43338.29,52538.3,53938.31,49438.32,55538.33,47538.34,51038.35,61238.36,47738.37,55238.38,49838.39,54438.4,50838.41,40438.42,50938.43,51538.44,50038.45,45638.46,53338.47,63638.48,54338.49,52338.5,46838.51,49638.52,51438.53,41338.54,54738.55,46038.56,46238.57,52538.58,49238.59,48138.6,54038.61,51538.62,51738.63,49238.64,53438.65,50338.66,55538.67,37638.68,49638.69,53838.7,48938.71,54738.72,52838.73,52838.74,56438.75,45238.76,50738.77,51838.78,48938.79,53438.8,49938.81,56838.82,52738.83,50238.84,53138.85,49738.86,50038.87,52438.88,45538.89,54538.9,50438.91,50338.92,52438.93,50938.94,57938.95,44838.96,51938.97,55238.98,51338.99,53739,49239.01,50439.02,52139.03,49439.04,54239.05,44839.06,49239.07,50739.08,49739.09,55839.1,50839.11,50039.12,51939.13,49739.14,53639.15,50439.16,42839.17,54139.18,49939.19,53839.2,50739.21,49439.22,53139.23,49739.24,53539.25,50539.26,48839.27,52839.28,44639.29,53539.3,51839.31,50239.32,53339.33,49639.34,53939.35,50239.36,49739.37,52639.38,48539.39,53639.4,40439.41,50439.42,52839.43,49139.44,53639.45,49539.46,49739.47,52439.48,49439.49,53639.5,50239.51,50539.52,47639.53,50339.54,55639.55,51339.56,48439.57,53139.58,48739.59,55639.6,50839.61,48639.62,53039.63,48739.64,56139.65,49139.66,48739.67,46339.68,50639.69,56039.7,50639.71,49039.72,53039.73,48439.74,55439.75,50839.76,48539.77,53339.78,50839.79,54339.8,52339.81,48739.82,53639.83,48639.84,55839.85,51339.86,48439.87,53139.88,48439.89,55939.9,50639.91,48539.92,53339.93,48739.94,56039.95,51139.96,48539.97,53039.98,48739.99,57040,45540.01,48440.02,53840.03,48340.04,56840.05,50840.06,48740.07,53440.08,48740.09,56940.1,49140.11,49040.12,53940.13,47740.14,56840.15,51240.16,47840.17,53840.18,48240.19,56140.2,51840.21,50440.22,54340.23,49040.24,56340.25,50740.26,49140.27,52740.28,47640.29,56340.3,49540.31,48540.32,53840.33,48340.34,56040.35,52140.36,48140.37,52540.38,49140.39,56340.4,50740.41,48540.42,53140.43,48140.44,55640.45,50840.46,50340.47,54540.48,48640.49,56640.5,52440.51,48540.52,54040.53,48640.54,56940.55,50740.56,49240.57,49840.58,43040.59,57040.6,51140.61,47640.62,52140.63,48740.64,51940.65,52240.66,49440.67,52640.68,47040.69,60140.7,45440.71,50140.72,53840.73,47840.74,55340.75,49040.76,48540.77,54340.78,48640.79,56640.8,51540.81,39740.82,54940.83,48940.84,50140.85,51940.86,48240.87,51740.88,48840.89,56340.9,51340.91,50540.92,55140.93,48540.94,55040.95,50440.96,51140.97,51840.98,49540.99,57141,47641.01,50541.02,53741.03,48141.04,56041.05,49941.06,47441.07,53441.08,51941.09,53241.1,52641.11,50941.12,53641.13,48741.14,58541.15,50841.16,49241.17,52741.18,44641.19,55341.2,52341.21,44741.22,53641.23,51941.24,54641.25,51141.26,49141.27,49041.28,48841.29,55841.3,50541.31,49641.32,53741.33,45941.34,56641.35,52941.36,45641.37,52941.38,50841.39,56941.4,52041.41,50941.42,55241.43,50541.44,52441.45,53541.46,53941.47,55941.48,49141.49,56241.5,51741.51,49641.52,54641.53,48041.54,56341.55,50141.56,52741.57,56741.58,48141.59,55941.6,51541.61,49141.62,54341.63,46841.64,51841.65,53241.66,44341.67,53841.68,43241.69,56641.7,50441.71,46741.72,50341.73,47041.74,53241.75,51641.76,50241.77,53641.78,49741.79,56941.8,56041.81,53041.82,55541.83,48941.84,50941.85,49441.86,50241.87,54041.88,46041.89,54041.9,51541.91,49341.92,53741.93,48541.94,54341.95,49641.96,48041.97,52441.98,49541.99,55842,48642.01,49242.02,55842.03,49642.04,56142.05,44742.06,50342.07,53542.08,49942.09,57742.1,51142.11,49642.12,51942.13,48442.14,56742.15,51742.16,48042.17,55142.18,51142.19,55342.2,51742.21,48442.22,52242.23,42142.24,54842.25,52142.26,49242.27,52642.28,48042.29,55342.3,49942.31,49242.32,53642.33,50342.34,55942.35,49142.36,48642.37,53542.38,48142.39,56042.4,50642.41,41242.42,53742.43,50042.44,60442.45,50342.46,50442.47,53542.48,48542.49,54242.5,53042.51,50542.52,54542.53,48842.54,55142.55,49742.56,49142.57,45142.58,45042.59,52442.6,51142.61,47042.62,54442.63,48942.64,54142.65,45742.66,50542.67,53242.68,49642.69,58842.7,55642.71,48442.72,56642.73,48942.74,56342.75,47842.76,46542.77,52242.78,51242.79,54542.8,46742.81,49242.82,54442.83,48742.84,52042.85,46042.86,46142.87,55842.88,48142.89,55642.9,47942.91,52142.92,54142.93,48942.94,51342.95,42842.96,49642.97,48942.98,48342.99,51643,47543.01,49443.02,54243.03,48943.04,57143.05,49343.06,50443.07,49443.08,49243.09,50843.1,52643.11,49443.12,54843.13,48943.14,57143.15,51543.16,40443.17,49243.18,39043.19,56743.2,48543.21,50043.22,52043.23,49743.24,54643.25,44743.26,49043.27,49843.28,48643.29,56743.3,49843.31,40943.32,53043.33,46643.34,55743.35,50443.36,52843.37,53643.38,50443.39,54643.4,47943.41,49443.42,53443.43,47943.44,50043.45,54343.46,46043.47,50943.48,44743.49,54743.5,49943.51,48143.52,56943.53,49543.54,46443.55,51343.56,48743.57,49143.58,48643.59,54143.6,48743.61,47943.62,49743.63,48143.64,51043.65,48143.66,49743.67,52943.68,47143.69,55343.7,50043.71,39943.72,46843.73,49643.74,51643.75,50143.76,50243.77,51943.78,49643.79,48443.8,48243.81,50443.82,54243.83,47643.84,54543.85,48043.86,51243.87,57243.88,48043.89,52643.9,49243.91,51043.92,54943.93,48843.94,52843.95,48543.96,50543.97,43143.98,49343.99,56044,48344.01,49444.02,47244.03,44244.04,57944.05,49944.06,46144.07,56244.08,41944.09,54044.1,51144.11,52044.12,53244.13,48144.14,50444.15,47944.16,50644.17,52744.18,47344.19,50844.2,52344.21,49844.22,54544.23,46244.24,47844.25,45444.26,50644.27,54744.28,42944.29,49944.3,40744.31,55644.32,55644.33,51944.34,53744.35,47544.36,40544.37,60144.38,50844.39,54644.4,51044.41,52144.42,46044.43,49144.44,51044.45,46644.46,50144.47,54044.48,47644.49,55644.5,47544.51,49044.52,51944.53,46144.54,56344.55,42444.56,49244.57,49244.58,57544.59,56444.6,49044.61,56044.62,61844.63,48744.64,55244.65,46044.66,51144.67,51544.68,45544.69,53144.7,28544.71,50944.72,45044.73,44644.74,52744.75,34144.76,51444.77,53644.78,45344.79,52044.8,49644.81,40244.82,54344.83,43844.84,54344.85,41744.86,47544.87,56844.88,51244.89,53544.9,41944.91,57144.92,46844.93,48244.94,52344.95,51544.96,55844.97,46044.98,50644.99,50245,48545.01,53245.02,55645.03,49345.04,49645.05,45245.06,54145.07,55645.08,48045.09,51045.1,50145.11,53245.12,54545.13,49745.14,55345.15,55945.16,48645.17,57245.18,44045.19,45545.2,43545.21,52245.22,52345.23,48745.24,55145.25,42045.26,52845.27,53545.28,45245.29,59445.3,47545.31,56345.32,50445.33,55345.34,52445.35,42345.36,57945.37,51945.38,43245.39,53145.4,50345.41,57845.42,49145.43,46245.44,55345.45,37745.46,54945.47,54045.48,49545.49,51645.5,52245.51,48645.52,58245.53,45945.54,56445.55,43345.56,45445.57,57545.58,49445.59,51245.6,48045.61,55445.62,54445.63,49545.64,51145.65,52245.66,53845.67,54645.68,45145.69,56845.7,50845.71,55345.72,51245.73,46545.74,53645.75,49345.76,54845.77,50945.78,47045.79,53345.8,49045.81,49545.82,55645.83,50745.84,53545.85,52445.86,49945.87,57645.88,44345.89,55145.9,47945.91,55045.92,56245.93,42445.94,53645.95,45845.96,53745.97,51045.98,47845.99,54246,42746.01,59746.02,41746.03,48046.04,54346.05,44246.06,53746.07,58146.08,46746.09,53646.1,45846.11,49946.12,50346.13,50146.14,54346.15,53846.16,58246.17,49046.18,50146.19,57946.2,34046.21,55346.22,58046.23,50646.24,46146.25,44946.26,52446.27,57546.28,51646.29,53646.3,46746.31,52946.32,38846.33,55346.34,53246.35,51146.36,49946.37,48646.38,52246.39,55246.4,51346.41,48146.42,42846.43,50846.44,49246.45,50646.46,55646.47,51246.48,44546.49,52146.5,50946.51,55646.52,50446.53,49946.54,60846.55,51646.56,55846.57,50646.58,53846.59,57046.6,48346.61,58446.62,51946.63,46046.64,57346.65,48446.66,57046.67,55546.68,56746.69,60546.7,48346.71,58046.72,46346.73,47646.74,47646.75,52446.76,60146.77,52546.78,44146.79,55146.8,45046.81,56046.82,57946.83,49046.84,58746.85,50946.86,57846.87,54146.88,37846.89,42346.9,50246.91,59646.92,59546.93,56546.94,50846.95,48546.96,58546.97,50446.98,44146.99,50647,50147.01,44747.02,50347.03,49847.04,47147.05,52847.06,54547.07,50947.08,49647.09,48747.1,46847.11,53847.12,50347.13,52147.14,52347.15,44647.16,60447.17,55147.18,53747.19,58447.2,44247.21,58347.22,51347.23,56347.24,53747.25,50247.26,53447.27,54347.28,49347.29,58547.3,45447.31,37947.32,54647.33,48047.34,54747.35,55247.36,50547.37,40547.38,52947.39,52747.4,32247.41,60547.42,50547.43,47347.44,57247.45,49547.46,56547.47,41047.48,34447.49,59647.5,47947.51,58647.52,50347.53,47247.54,54547.55,46047.56,63747.57,52847.58,43247.59,58547.6,46147.61,50847.62,44447.63,53047.64,51447.65,41147.66,58747.67,50647.68,53947.69,56447.7,46947.71,58647.72,52847.73,52347.74,58147.75,45747.76,60347.77,50347.78,39347.79,45147.8,48347.81,49447.82,47047.83,54147.84,35047.85,47247.86,55347.87,42647.88,60347.89,56747.9,48947.91,52347.92,46547.93,46747.94,54747.95,41747.96,60147.97,52447.98,47047.99,54448,52748.01,59148.02,54348.03,51148.04,49748.05,41048.06,57048.07,43048.08,49348.09,51548.1,44648.11,53748.12,45348.13,62048.14,52748.15,47848.16,55448.17,45148.18,48148.19,51148.2,44048.21,60048.22,54648.23,51048.24,53248.25,48048.26,54548.27,51248.28,39948.29,51848.3,51548.31,56948.32,47548.33,52448.34,59948.35,47648.36,45348.37,45648.38,42948.39,44348.4,48048.41,53048.42,39648.43,51648.44,35048.45,49148.46,40648.47,47648.48,52648.49,46548.5,42648.51,39948.52,51248.53,45448.54,52648.55,43148.56,53748.57,45948.58,64948.59,59548.6,49648.61,61348.62,43348.63,45048.64,56148.65,48748.66,48248.67,48348.68,37548.69,55048.7,45848.71,59448.72,32848.73,56348.74,51448.75,45748.76,53648.77,38248.78,54048.79,50948.8,33748.81,55248.82,48848.83,50448.84,56348.85,44548.86,55348.87,49148.88,45448.89,59748.9,51048.91,49048.92,49948.93,52448.94,44948.95,46348.96,56748.97,51348.98,54348.99,40349,44249.01,57549.02,42049.03,51149.04,50249.05,52449.06,55049.07,50949.08,57249.09,56349.1,34249.11,57749.12,45049.13,50549.14,47349.15,49049.16,58149.17,52649.18,58849.19,49149.2,48749.21,65549.22,52149.23,58649.24,58449.25,43549.26,51549.27,49249.28,52649.29,52749.3,42649.31,50549.32,35749.33,47849.34,56949.35,50549.36,54549.37,40549.38,59949.39,53649.4,49749.41,54649.42,44849.43,66349.44,59149.45,38849.46,54649.47,52349.48,57349.49,54749.5,55149.51,58549.52,47549.53,56149.54,56349.55,33049.56,55449.57,48349.58,49449.59,57649.6,49549.61,54949.62,44149.63,43649.64,49349.65,48349.66,52649.67,51849.68,54149.69,43849.7,48749.71,55449.72,45849.73,54049.74,55849.75,51549.76,55649.77,50049.78,50249.79,50749.8,53249.81,50949.82,48549.83,51549.84,52149.85,52449.86,54349.87,46749.88,51049.89,51949.9,51049.91,42849.92,40149.93,55249.94,49249.95,38149.96,58249.97,47349.98,57949.99,51550,51950.01,48650.02,44150.03,58850.04,51050.05,53350.06,59550.07,50250.08,59150.09,52650.1,54550.11,54350.12,45050.13,56750.14,46050.15,52750.16,51350.17,46550.18,51850.19,47250.2,50050.21,55050.22,43450.23,59650.24,52750.25,34850.26,56050.27,40950.28,45950.29,43250.3,42750.31,53750.32,48850.33,53150.34,45350.35,44050.36,62150.37,51350.38,55850.39,29350.4,51150.41,51350.42,44950.43,44750.44,52650.45,51450.46,57450.47,49850.48,52950.49,55650.5,42050.51,55150.52,47450.53,55250.54,54350.55,51850.56,50150.57,52650.58,55950.59,50050.6,49050.61,53250.62,51050.63,54450.64,39750.65,48950.66,56050.67,51450.68,56850.69,51950.7,52950.71,55350.72,43750.73,56750.74,45450.75,44750.76,54750.77,49150.78,57650.79,52050.8,43950.81,51250.82,52350.83,56950.84,52450.85,51050.86,54750.87,47250.88,59350.89,46450.9,49650.91,53150.92,48250.93,53450.94,44050.95,47950.96,54350.97,48750.98,56650.99,50351,54251.01,63151.02,49251.03,56151.04,49351.05,49051.06,56651.07,47551.08,56651.09,42351.1,44751.11,54951.12,48551.13,56551.14,47651.15,52151.16,56351.17,48551.18,50351.19,49151.2,46551.21,53251.22,47851.23,53151.24,46751.25,54051.26,50451.27,47851.28,53551.29,48851.3,50651.31,52951.32,51351.33,54551.34,49751.35,51251.36,52251.37,47551.38,53151.39,49551.4,51051.41,52151.42,47251.43,51951.44,48951.45,51351.46,51851.47,42451.48,52751.49,47851.5,52351.51,53551.52,48551.53,52651.54,45551.55,50951.56,52451.57,49151.58,52251.59,49251.6,51151.61,51551.62,49251.63,52151.64,49451.65,51451.66,51851.67,49451.68,51851.69,49251.7,51351.71,51551.72,48351.73,52351.74,49351.75,53151.76,52451.77,49251.78,51951.79,49651.8,51351.81,52051.82,49251.83,51951.84,49351.85,51351.86,51651.87,49351.88,52351.89,49651.9,51551.91,51751.92,49551.93,51951.94,49551.95,51651.96,51651.97,49651.98,51951.99,49552,51552.01,51452.02,49652.03,51652.04,49552.05,51552.06,51552.07,49552.08,51852.09,49752.1,51852.11,51352.12,49852.13,51652.14,49752.15,51552.16,51552.17,49652.18,51852.19,49852.2,51852.21,51552.22,49752.23,51952.24,49452.25,51952.26,51652.27,49752.28,52052.29,49452.3,52052.31,51752.32,49652.33,51952.34,49752.35,51952.36,51652.37,49952.38,51852.39,49752.4,52052.41,51852.42,49752.43,51652.44,49552.45,52452.46,51752.47,49752.48,51752.49,49852.5,52352.51,51652.52,50352.53,51652.54,49752.55,52152.56,51752.57,49852.58,51352.59,49852.6,52552.61,51852.62,50052.63,51652.64,49652.65,52452.66,51852.67,49752.68,51552.69,49752.7,52852.71,51652.72,49452.73,52252.74,49552.75,52552.76,51852.77,49752.78,52152.79,49852.8,52952.81,51652.82,49652.83,51852.84,50052.85,53052.86,51952.87,49552.88,51552.89,50352.9,54752.91,53252.92,42152.93,58752.94,49052.95,43752.96,52352.97,43352.98,52652.99,50053,52353.01,50653.02,49653.03,51653.04,51153.05,54053.06,53153.07,52153.08,50353.09,51953.1,53553.11,51853.12,50353.13,51953.14,50353.15,52053.16,51853.17,49953.18,51753.19,51153.2,52453.21,51753.22,50853.23,51353.24,48853.25,51953.26,51453.27,50553.28,51253.29,46753.3,51153.31,46853.32,50453.33,52053.34,47953.35,52953.36,52653.37,50353.38,51753.39,49953.4,52453.41,51453.42,50053.43,51853.44,50353.45,53653.46,51253.47,50353.48,51853.49,50253.5,52753.51,48653.52,50753.53,52953.54,50053.55,52453.56,50753.57,50253.58,51853.59,50453.6,52753.61,51253.62,50353.63,51853.64,49953.65,52653.66,50753.67,50453.68,51953.69,49953.7,52753.71,51053.72,50553.73,51553.74,50153.75,53053.76,51253.77,50553.78,51953.79,49953.8,53153.81,51253.82,50653.83,51653.84,50353.85,53553.86,50253.87,50253.88,52253.89,50053.9,53153.91,51253.92,50653.93,51553.94,50053.95,53453.96,50253.97,50453.98,52153.99,49654,53554.01,50854.02,50154.03,51954.04,49754.05,53254.06,50554.07,50454.08,51954.09,49754.1,53154.11,50154.12,50154.13,51854.14,49654.15,53354.16,50154.17,50454.18,51954.19,49654.2,53154.21,50454.22,50354.23,51954.24,49654.25,53754.26,50454.27,50054.28,52054.29,49554.3,53954.31,49954.32,49954.33,52354.34,49554.35,53754.36,49954.37,50054.38,52154.39,49254.4,53954.41,49954.42,49654.43,52454.44,48954.45,53754.46,49954.47,50154.48,52054.49,49154.5,54054.51,49754.52,49954.53,52054.54,49054.55,54154.56,49754.57,50054.58,52454.59,49254.6,53354.61,49854.62,50054.63,52454.64,48854.65,53854.66,49554.67,49954.68,52354.69,49454.7,53454.71,49554.72,50254.73,51954.74,50054.75,53254.76,49754.77,50454.78,51654.79,49554.8,53154.81,50154.82,50354.83,51854.84,49654.85,52954.86,49754.87,50154.88,51854.89,49654.9,53054.91,49854.92,50454.93,51854.94,49154.95,52954.96,49754.97,50254.98,51754.99,49655,52755.01,49955.02,50255.03,51955.04,49155.05,53255.06,49555.07,49955.08,52055.09,49655.1,52855.11,49655.12,50255.13,51955.14,49455.15,52955.16,49655.17,49955.18,51755.19,49355.2,52755.21,49955.22,50255.23,51855.24,49355.25,52755.26,49755.27,49955.28,51955.29,49255.3,52555.31,49655.32,50155.33,51655.34,49455.35,52655.36,49555.37,50255.38,51955.39,49555.4,52455.41,49855.42,50455.43,51655.44,49755.45,52555.46,49655.47,50255.48,51755.49,49255.5,52455.51,49955.52,50555.53,51955.54,49555.55,52555.56,49355.57,50455.58,51955.59,49255.6,52355.61,49955.62,50355.63,51855.64,49455.65,52255.66,49355.67,50555.68,51755.69,49555.7,52255.71,49255.72,50855.73,51555.74,49255.75,52155.76,49455.77,50555.78,51555.79,49455.8,52255.81,49755.82,50555.83,51555.84,49455.85,51955.86,49655.87,50655.88,51555.89,49855.9,51655.91,49755.92,50955.93,51755.94,49655.95,51655.96,49755.97,50555.98,51555.99,50256,51956.01,49656.02,50556.03,51556.04,49656.05,51956.06,49756.07,50856.08,51456.09,49856.1,51956.11,49656.12,50856.13,51556.14,49656.15,51856.16,49856.17,50956.18,51456.19,49556.2,51756.21,49956.22,50756.23,51556.24,49556.25,51856.26,49856.27,51256.28,51556.29,49956.3,51556.31,49856.32,50956.33,51656.34,49856.35,51656.36,49856.37,51156.38,51456.39,49656.4,51556.41,49856.42,51056.43,51556.44,50156.45,51556.46,49456.47,51156.48,51656.49,50056.5,51756.51,49756.52,51256.53,51756.54,50156.55,51756.56,49756.57,51556.58,51456.59,49656.6,51756.61,49856.62,51156.63,51456.64,49956.65,51956.66,49956.67,51556.68,51456.69,49856.7,51656.71,49656.72,51356.73,51956.74,49956.75,51656.76,49956.77,51656.78,51556.79,50256.8,51556.81,50056.82,51556.83,51356.84,50356.85,51656.86,50156.87,51556.88,51856.89,50056.9,51856.91,49956.92,51156.93,51456.94,50256.95,51656.96,50056.97,51956.98,51656.99,49957,51557.01,50057.02,51657.03,51457.04,49957.05,51557.06,50057.07,51957.08,51957.09,50157.1,51657.11,50057.12,51357.13,51957.14,50157.15,51557.16,49957.17,51657.18,51757.19,49957.2,51557.21,50757.22,51957.23,51657.24,50057.25,51557.26,50257.27,51957.28,51457.29,49957.3,51357.31,50157.32,51557.33,51957.34,50257.35,51157.36,50057.37,51657.38,51357.39,50457.4,51257.41,49957.42,51957.43,51357.44,50057.45,51357.46,50357.47,51957.48,51257.49,50357.5,51257.51,50457.52,51757.53,51657.54,50057.55,51557.56,50157.57,52157.58,51457.59,50057.6,51457.61,50157.62,51857.63,51557.64,50557.65,51357.66,50557.67,52057.68,51457.69,50757.7,51457.71,50557.72,52157.73,51057.74,50457.75,51357.76,50257.77,52057.78,51357.79,50557.8,51357.81,50457.82,51857.83,51457.84,50657.85,51557.86,50557.87,51857.88,51257.89,50457.9,51157.91,50357.92,52057.93,51657.94,50357.95,51157.96,50457.97,52157.98,51557.99,50258,51058.01,50458.02,51858.03,51858.04,50358.05,51458.06,50358.07,51858.08,51358.09,50658.1,51458.11,50258.12,51958.13,51758.14,50458.15,51258.16,50558.17,52258.18,51758.19,50758.2,51058.21,50458.22,51958.23,51158.24,50458.25,51458.26,50758.27,52358.28,51458.29,50258.3,51458.31,50358.32,51958.33,52058.34,50358.35,51558.36,50758.37,51958.38,51158.39,50458.4,51258.41,50758.42,52058.43,51558.44,50258.45,51458.46,50258.47,52458.48,51058.49,50358.5,51258.51,50558.52,51958.53,51658.54,51058.55,51258.56,50358.57,51958.58,51558.59,50458.6,51558.61,50458.62,51958.63,51558.64,50558.65,51458.66,50958.67,52058.68,51658.69,50558.7,51358.71,50758.72,52058.73,51758.74,50858.75,51358.76,50758.77,51858.78,51458.79,50558.8,51458.81,50858.82,51958.83,51258.84,50858.85,51458.86,50458.87,51958.88,51558.89,50358.9,51258.91,50458.92,52058.93,51458.94,50858.95,51058.96,50758.97,51858.98,51358.99,50859,51559.01,50459.02,51959.03,51459.04,50559.05,51159.06,50559.07,52059.08,51259.09,50759.1,50959.11,50759.12,52259.13,51559.14,50659.15,51159.16,50759.17,51859.18,51159.19,50759.2,51359.21,50859.22,52159.23,50959.24,50659.25,51059.26,50659.27,52059.28,51059.29,51059.3,51259.31,50759.32,52059.33,51259.34,50759.35,51359.36,50459.37,52059.38,51359.39,50859.4,51159.41,50759.42,52359.43,51259.44,50559.45,51159.46,50559.47,51859.48,51259.49,50459.5,51159.51,50859.52,51659.53,50659.54,50159.55,51159.56,50559.57,52459.58,51259.59,50459.6,51259.61,50559.62,52159.63,51359.64,50259.65,51259.66,50459.67,52159.68,51059.69,502