Fs=100
t,x
0,527
0.01,531
0.02,526
0.03,511
0.04,500
0.05,503
0.06,505
0.07,506
0.08,508
0.09,510
0.1,504
0.11,491
0.12,490
0.13,574
0.14,705
0.15,691
0.16,547
0.17,448
0.18,429
0.19,455
0.2,468
0.21,494
0.22,503
0.23,502
0.24,511
0.25,515
0.26,519
0.27,518
0.28,527
0.29,527
0.3,531
0.31,540
0.32,549
0.33,559
0.34,572
0.35,572
0.36,572
0.37,566
0.38,550
0.39,527
0.4,497
0.41,481
0.42,463
0.43,454
0.44,452
0.45,456
0.46,456
0.47,459
0.48,463
0.49,467
0.5,473
0.51,478
0.52,484
0.53,483
0.54,487
0.55,488
0.56,489
0.57,497
0.58,497
0.59,501
0.6,501
0.61,504
0.62,504
0.63,502
0.64,510
0.65,512
0.66,503
0.67,508
0.68,507
0.69,503
0.7,506
0.71,507
0.72,510
0.73,510
0.74,507
0.75,506
0.76,508
0.77,506
0.78,505
0.79,506
0.8,509
0.81,512
0.82,512
0.83,518
0.84,516
0.85,513
0.86,526
0.87,524
0.88,521
0.89,502
0.9,499
0.91,498
0.92,504
0.93,499
0.94,504
0.95,502
0.96,501
0.97,496
0.98,487
0.99,559
1,680
1.01,687
1.02,559
1.03,453
1.04,418
1.05,441
1.06,457
1.07,483
1.08,497
1.09,502
1.1,501
1.11,507
1.12,512
1.13,514
1.14,513
1.15,515
1.16,525
1.17,539
1.18,537
1.19,544
1.2,552
1.21,571
1.22,558
1.23,551
1.24,549
1.25,527
1.26,504
1.27,483
1.28,463
1.29,452
1.3,442
1.31,446
1.32,454
1.33,450
1.34,465
1.35,462
1.36,462
1.37,469
1.38,476
1.39,483
1.4,484
1.41,482
1.42,493
1.43,487
1.44,489
1.45,498
1.46,492
1.47,501
1.48,491
1.49,493
1.5,504
1.51,500
1.52,502
1.53,502
1.54,505
1.55,502
1.56,506
1.57,505
1.58,503
1.59,501
1.6,509
1.61,501
1.62,512
1.63,503
1.64,512
1.65,508
1.66,508
1.67,508
1.68,512
1.69,512
1.7,515
1.71,511
1.72,520
1.73,514
1.74,521
1.75,516
1.76,524
1.77,522
1.78,505
1.79,503
1.8,510
1.81,500
1.82,504
1.83,507
1.84,504
1.85,506
1.86,492
1.87,492
1.88,538
1.89,664
1.9,716
1.91,585
1.92,462
1.93,416
1.94,445
1.95,455
1.96,481
1.97,491
1.98,509
1.99,499
2,504
2.01,508
2.02,513
2.03,513
2.04,527
2.05,528
2.06,532
2.07,539
2.08,548
2.09,560
2.1,571
2.11,566
2.12,561
2.13,556
2.14,529
2.15,511
2.16,485
2.17,457
2.18,455
2.19,445
2.2,446
2.21,455
2.22,453
2.23,456
2.24,463
2.25,466
2.26,472
2.27,476
2.28,476
2.29,485
2.3,486
2.31,488
2.32,488
2.33,494
2.34,490
2.35,498
2.36,494
2.37,501
2.38,500
2.39,499
2.4,504
2.41,502
2.42,504
2.43,506
2.44,508
2.45,507
2.46,505
2.47,507
2.48,513
2.49,510
2.5,506
2.51,511
2.52,507
2.53,510
2.54,512
2.55,508
2.56,509
2.57,512
2.58,512
2.59,513
2.6,510
2.61,511
2.62,513
2.63,510
2.64,513
2.65,513
2.66,517
2.67,513
2.68,521
2.69,523
2.7,522
2.71,509
2.72,501
2.73,499
2.74,500
2.75,503
2.76,500
2.77,497
2.78,496
2.79,499
2.8,485
2.81,503
2.82,622
2.83,728
2.84,633
2.85,487
2.86,419
2.87,437
2.88,451
2.89,473
2.9,490
2.91,494
2.92,496
2.93,501
2.94,505
2.95,512
2.96,513
2.97,518
2.98,521
2.99,526
3,533
3.01,542
3.02,555
3.03,557
3.04,565
3.05,564
3.06,550
3.07,536
3.08,517
3.09,490
3.1,470
3.11,451
3.12,445
3.13,442
3.14,449
3.15,451
3.16,454
3.17,459
3.18,467
3.19,467
3.2,472
3.21,477
3.22,480
3.23,485
3.24,489
3.25,489
3.26,491
3.27,493
3.28,493
3.29,502
3.3,500
3.31,503
3.32,501
3.33,501
3.34,502
3.35,506
3.36,503
3.37,502
3.38,505
3.39,508
3.4,505
3.41,502
3.42,510
3.43,510
3.44,512
3.45,508
3.46,509
3.47,513
3.48,504
3.49,507
3.5,511
3.51,507
3.52,508
3.53,517
3.54,515
3.55,509
3.56,504
3.57,510
3.58,512
3.59,509
3.6,511
3.61,516
3.62,514
3.63,517
3.64,522
3.65,524
3.66,513
3.67,505
3.68,497
3.69,502
3.7,503
3.71,498
3.72,502
3.73,502
3.74,502
3.75,483
3.76,488
3.77,583
3.78,715
3.79,670
3.8,521
3.81,425
3.82,431
3.83,447
3.84,467
3.85,497
3.86,493
3.87,499
3.88,507
3.89,506
3.9,508
3.91,509
3.92,516
3.93,521
3.94,527
3.95,530
3.96,538
3.97,554
3.98,553
3.99,567
4,565
4.01,559
4.02,548
4.03,528
4.04,501
4.05,478
4.06,460
4.07,452
4.08,448
4.09,446
4.1,440
4.11,448
4.12,461
4.13,461
4.14,461
4.15,475
4.16,473
4.17,480
4.18,482
4.19,490
4.2,488
4.21,483
4.22,491
4.23,493
4.24,499
4.25,494
4.26,505
4.27,499
4.28,500
4.29,499
4.3,507
4.31,503
4.32,504
4.33,507
4.34,507
4.35,518
4.36,501
4.37,511
4.38,510
4.39,508
4.4,504
4.41,503
4.42,510
4.43,513
4.44,516
4.45,507
4.46,500
4.47,514
4.48,504
4.49,508
4.5,507
4.51,509
4.52,502
4.53,513
4.54,516
4.55,508
4.56,514
4.57,511
4.58,519
4.59,524
4.6,523
4.61,499
4.62,499
4.63,499
4.64,512
4.65,499
4.66,502
4.67,498
4.68,498
4.69,487
4.7,483
4.71,574
4.72,708
4.73,684
4.74,537
4.75,421
4.76,423
4.77,452
4.78,463
4.79,481
4.8,495
4.81,501
4.82,499
4.83,507
4.84,512
4.85,515
4.86,515
4.87,524
4.88,527
4.89,535
4.9,542
4.91,558
4.92,557
4.93,574
4.94,567
4.95,563
4.96,548
4.97,532
4.98,504
4.99,478
5,458
5.01,445
5.02,439
5.03,442
5.04,446
5.05,453
5.06,451
5.07,462
5.08,462
5.09,470
5.1,470
5.11,480
5.12,482
5.13,483
5.14,494
5.15,490
5.16,490
5.17,499
5.18,497
5.19,505
5.2,501
5.21,503
5.22,512
5.23,496
5.24,502
5.25,504
5.26,504
5.27,505
5.28,508
5.29,510
5.3,506
5.31,504
5.32,507
5.33,509
5.34,509
5.35,511
5.36,508
5.37,515
5.38,510
5.39,504
5.4,510
5.41,511
5.42,511
5.43,513
5.44,515
5.45,511
5.46,507
5.47,511
5.48,515
5.49,518
5.5,513
5.51,520
5.52,524
5.53,521
5.54,506
5.55,500
5.56,498
5.57,499
5.58,502
5.59,501
5.6,500
5.61,504
5.62,499
5.63,476
5.64,523
5.65,643
5.66,714
5.67,606
5.68,462
5.69,414
5.7,444
5.71,455
5.72,479
5.73,488
5.74,496
5.75,503
5.76,510
5.77,507
5.78,513
5.79,512
5.8,519
5.81,524
5.82,528
5.83,536
5.84,551
5.85,555
5.86,565
5.87,568
5.88,565
5.89,558
5.9,539
5.91,511
5.92,487
5.93,465
5.94,454
5.95,448
5.96,447
5.97,450
5.98,450
5.99,457
6,462
6.01,460
6.02,472
6.03,474
6.04,476
6.05,484
6.06,482
6.07,487
6.08,491
6.09,495
6.1,495
6.11,496
6.12,502
6.13,499
6.14,503
6.15,502
6.16,505
6.17,504
6.18,501
6.19,508
6.2,507
6.21,507
6.22,507
6.23,506
6.24,507
6.25,509
6.26,507
6.27,512
6.28,507
6.29,513
6.3,505
6.31,511
6.32,507
6.33,508
6.34,510
6.35,507
6.36,509
6.37,515
6.38,515
6.39,510
6.4,519
6.41,525
6.42,523
6.43,503
6.44,498
6.45,503
6.46,506
6.47,504
6.48,500
6.49,505
6.5,500
6.51,492
6.52,489
6.53,554
6.54,689
6.55,677
6.56,540
6.57,440
6.58,435
6.59,454
6.6,462
6.61,484
6.62,494
6.63,500
6.64,510
6.65,511
6.66,514
6.67,518
6.68,518
6.69,525
6.7,524
6.71,532
6.72,545
6.73,558
6.74,559
6.75,563
6.76,570
6.77,561
6.78,543
6.79,523
6.8,500
6.81,473
6.82,459
6.83,449
6.84,444
6.85,444
6.86,446
6.87,454
6.88,456
6.89,462
6.9,468
6.91,466
6.92,474
6.93,474
6.94,483
6.95,487
6.96,488
6.97,495
6.98,498
6.99,499
7,501
7.01,498
7.02,504
7.03,503
7.04,507
7.05,505
7.06,505
7.07,504
7.08,499
7.09,508
7.1,508
7.11,504
7.12,504
7.13,510
7.14,511
7.15,508
7.16,508
7.17,511
7.18,511
7.19,512
7.2,512
7.21,512
7.22,524
7.23,528
7.24,518
7.25,510
7.26,500
7.27,502
7.28,502
7.29,502
7.3,504
7.31,502
7.32,504
7.33,495
7.34,480
7.35,522
7.36,643
7.37,697
7.38,582
7.39,465
7.4,422
7.41,449
7.42,462
7.43,482
7.44,499
7.45,503
7.46,507
7.47,513
7.48,510
7.49,516
7.5,519
7.51,524
7.52,526
7.53,533
7.54,541
7.55,545
7.56,560
7.57,566
7.58,569
7.59,564
7.6,552
7.61,530
7.62,503
7.63,483
7.64,462
7.65,450
7.66,446
7.67,445
7.68,448
7.69,457
7.7,454
7.71,462
7.72,468
7.73,470
7.74,476
7.75,478
7.76,484
7.77,487
7.78,487
7.79,494
7.8,495
7.81,496
7.82,499
7.83,498
7.84,500
7.85,504
7.86,502
7.87,505
7.88,501
7.89,504
7.9,508
7.91,508
7.92,506
7.93,505
7.94,507
7.95,505
7.96,509
7.97,507
7.98,510
7.99,510
8,506
8.01,510
8.02,512
8.03,507
8.04,512
8.05,512
8.06,516
8.07,513
8.08,517
8.09,527
8.1,524
8.11,511
8.12,504
8.13,500
8.14,503
8.15,501
8.16,503
8.17,504
8.18,501
8.19,499
8.2,483
8.21,506
8.22,617
8.23,719
8.24,623
8.25,486
8.26,418
8.27,441
8.28,460
8.29,476
8.3,490
8.31,496
8.32,502
8.33,506
8.34,509
8.35,514
8.36,518
8.37,522
8.38,524
8.39,531
8.4,537
8.41,544
8.42,555
8.43,558
8.44,564
8.45,559
8.46,555
8.47,538
8.48,515
8.49,489
8.5,467
8.51,451
8.52,447
8.53,450
8.54,445
8.55,450
8.56,456
8.57,458
8.58,465
8.59,472
8.6,470
8.61,477
8.62,480
8.63,487
8.64,490
8.65,490
8.66,499
8.67,495
8.68,495
8.69,499
8.7,498
8.71,505
8.72,502
8.73,500
8.74,504
8.75,507
8.76,504
8.77,505
8.78,507
8.79,503
8.8,504
8.81,508
8.82,508
8.83,507
8.84,508
8.85,512
8.86,506
8.87,510
8.88,505
8.89,512
8.9,512
8.91,512
8.92,511
8.93,513
8.94,519
8.95,518
8.96,515
8.97,523
8.98,525
8.99,521
9,503
9.01,502
9.02,503
9.03,502
9.04,503
9.05,502
9.06,502
9.07,498
9.08,495
9.09,481
9.1,536
9.11,661
9.12,696
9.13,578
9.14,456
9.15,419
9.16,448
9.17,460
9.18,482
9.19,492
9.2,496
9.21,502
9.22,507
9.23,511
9.24,517
9.25,514
9.26,520
9.27,526
9.28,532
9.29,540
9.3,552
9.31,563
9.32,564
9.33,568
9.34,560
9.35,548
9.36,532
9.37,510
9.38,478
9.39,466
9.4,455
9.41,447
9.42,442
9.43,445
9.44,456
9.45,456
9.46,460
9.47,465
9.48,476
9.49,474
9.5,477
9.51,482
9.52,488
9.53,488
9.54,491
9.55,492
9.56,494
9.57,499
9.58,500
9.59,498
9.6,500
9.61,504
9.62,501
9.63,505
9.64,504
9.65,504
9.66,509
9.67,504
9.68,507
9.69,508
9.7,505
9.71,509
9.72,511
9.73,512
9.74,512
9.75,506
9.76,506
9.77,508
9.78,509
9.79,512
9.8,512
9.81,511
9.82,515
9.83,515
9.84,518
9.85,517
9.86,521
9.87,527
9.88,530
9.89,524
9.9,504
9.91,502
9.92,504
9.93,507
9.94,511
9.95,497
9.96,496
9.97,501
9.98,496
9.99,487
10,562
10.01,696
10.02,695
10.03,552
10.04,440
10.05,423
10.06,453
10.07,460
10.08,481
10.09,492
10.1,498
10.11,505
10.12,507
10.13,514
10.14,519
10.15,513
10.16,522
10.17,528
10.18,533
10.19,545
10.2,552
10.21,564
10.22,570
10.23,567
10.24,563
10.25,553
10.26,527
10.27,506
10.28,478
10.29,455
10.3,447
10.31,440
10.32,442
10.33,445
10.34,453
10.35,451
10.36,463
10.37,464
10.38,465
10.39,472
10.4,476
10.41,482
10.42,484
10.43,489
10.44,488
10.45,491
10.46,496
10.47,504
10.48,492
10.49,501
10.5,504
10.51,500
10.52,499
10.53,502
10.54,502
10.55,503
10.56,505
10.57,512
10.58,506
10.59,504
10.6,505
10.61,505
10.62,505
10.63,507
10.64,508
10.65,512
10.66,509
10.67,508
10.68,508
10.69,513
10.7,502
10.71,511
10.72,515
10.73,512
10.74,516
10.75,515
10.76,521
10.77,524
10.78,528
10.79,506
10.8,504
10.81,497
10.82,499
10.83,498
10.84,502
10.85,506
10.86,503
10.87,495
10.88,481
10.89,528
10.9,645
10.91,703
10.92,591
10.93,463
10.94,423
10.95,441
10.96,453
10.97,477
10.98,492
10.99,499
11,508
11.01,511
11.02,515
11.03,514
11.04,517
11.05,524
11.06,525
11.07,534
11.08,542
11.09,551
11.1,560
11.11,568
11.12,577
11.13,567
11.14,559
11.15,532
11.16,511
11.17,483
11.18,468
11.19,450
11.2,446
11.21,447
11.22,445
11.23,449
11.24,458
11.25,470
11.26,455
11.27,469
11.28,472
11.29,484
11.3,479
11.31,494
11.32,496
11.33,495
11.34,497
11.35,496
11.36,499
11.37,512
11.38,504
11.39,499
11.4,501
11.41,508
11.42,507
11.43,508
11.44,506
11.45,504
11.46,510
11.47,508
11.48,509
11.49,504
11.5,506
11.51,505
11.52,508
11.53,511
11.54,506
11.55,505
11.56,515
11.57,507
11.58,509
11.59,519
11.6,514
11.61,510
11.62,521
11.63,519
11.64,518
11.65,503
11.66,496
11.67,497
11.68,501
11.69,500
11.7,500
11.71,495
11.72,501
11.73,490
11.74,485
11.75,543
11.76,667
11.77,690
11.78,558
11.79,451
11.8,422
11.81,453
11.82,463
11.83,485
11.84,494
11.85,501
11.86,505
11.87,508
11.88,517
11.89,515
11.9,519
11.91,524
11.92,528
11.93,536
11.94,543
11.95,542
11.96,561
11.97,564
11.98,567
11.99,560
12,553
12.01,537
12.02,500
12.03,476
12.04,461
12.05,448
12.06,446
12.07,446
12.08,445
12.09,451
12.1,454
12.11,465
12.12,463
12.13,468
12.14,474
12.15,481
12.16,483
12.17,486
12.18,487
12.19,496
12.2,493
12.21,494
12.22,499
12.23,501
12.24,499
12.25,499
12.26,504
12.27,502
12.28,502
12.29,505
12.3,505
12.31,506
12.32,506
12.33,503
12.34,503
12.35,509
12.36,504
12.37,507
12.38,508
12.39,509
12.4,504
12.41,510
12.42,511
12.43,507
12.44,512
12.45,508
12.46,508
12.47,511
12.48,515
12.49,518
12.5,519
12.51,513
12.52,515
12.53,524
12.54,524
12.55,518
12.56,504
12.57,496
12.58,494
12.59,499
12.6,499
12.61,501
12.62,498
12.63,504
12.64,486
12.65,487
12.66,580
12.67,706
12.68,672
12.69,529
12.7,429
12.71,428
12.72,452
12.73,469
12.74,487
12.75,495
12.76,503
12.77,509
12.78,510
12.79,512
12.8,514
12.81,521
12.82,521
12.83,528
12.84,530
12.85,542
12.86,554
12.87,559
12.88,564
12.89,569
12.9,561
12.91,545
12.92,530
12.93,500
12.94,478
12.95,458
12.96,452
12.97,440
12.98,447
12.99,447
13,450
13.01,459
13.02,463
13.03,467
13.04,474
13.05,476
13.06,484
13.07,480
13.08,487
13.09,487
13.1,495
13.11,494
13.12,495
13.13,493
13.14,499
13.15,501
13.16,500
13.17,502
13.18,505
13.19,503
13.2,501
13.21,501
13.22,508
13.23,503
13.24,507
13.25,506
13.26,510
13.27,513
13.28,508
13.29,511
13.3,507
13.31,507
13.32,510
13.33,513
13.34,510
13.35,510
13.36,508
13.37,507
13.38,508
13.39,511
13.4,512
13.41,513
13.42,514
13.43,511
13.44,515
13.45,525
13.46,531
13.47,516
13.48,508
13.49,497
13.5,502
13.51,503
13.52,499
13.53,501
13.54,502
13.55,500
13.56,480
13.57,496
13.58,608
13.59,727
13.6,639
13.61,492
13.62,417
13.63,437
13.64,451
13.65,473
13.66,489
13.67,494
13.68,503
13.69,502
13.7,507
13.71,513
13.72,513
13.73,515
13.74,523
13.75,525
13.76,538
13.77,543
13.78,559
13.79,562
13.8,565
13.81,563
13.82,558
13.83,540
13.84,519
13.85,492
13.86,473
13.87,455
13.88,449
13.89,448
13.9,449
13.91,452
13.92,453
13.93,459
13.94,461
13.95,466
13.96,480
13.97,474
13.98,480
13.99,492
14,483
14.01,489
14.02,488
14.03,496
14.04,496
14.05,496
14.06,500
14.07,499
14.08,496
14.09,504
14.1,501
14.11,506
14.12,502
14.13,506
14.14,509
14.15,507
14.16,510
14.17,507
14.18,510
14.19,507
14.2,504
14.21,506
14.22,505
14.23,508
14.24,509
14.25,509
14.26,506
14.27,511
14.28,511
14.29,508
14.3,509
14.31,511
14.32,513
14.33,512
14.34,512
14.35,513
14.36,515
14.37,523
14.38,524
14.39,517
14.4,503
14.41,500
14.42,499
14.43,504
14.44,499
14.45,502
14.46,500
14.47,501
14.48,484
14.49,492
14.5,598
14.51,727
14.52,647
14.53,505
14.54,419
14.55,435
14.56,455
14.57,468
14.58,488
14.59,498
14.6,500
14.61,505
14.62,508
14.63,511
14.64,515
14.65,517
14.66,523
14.67,528
14.68,538
14.69,543
14.7,550
14.71,564
14.72,567
14.73,568
14.74,560
14.75,543
14.76,525
14.77,499
14.78,476
14.79,453
14.8,449
14.81,447
14.82,443
14.83,448
14.84,452
14.85,455
14.86,466
14.87,465
14.88,471
14.89,477
14.9,480
14.91,487
14.92,486
14.93,492
14.94,497
14.95,494
14.96,496
14.97,496
14.98,500
14.99,500
15,501
15.01,503
15.02,502
15.03,505
15.04,507
15.05,504
15.06,505
15.07,507
15.08,508
15.09,508
15.1,506
15.11,510
15.12,512
15.13,505
15.14,511
15.15,508
15.16,512
15.17,506
15.18,510
15.19,511
15.2,508
15.21,510
15.22,509
15.23,511
15.24,512
15.25,509
15.26,513
15.27,512
15.28,518
15.29,513
15.3,518
15.31,527
15.32,527
15.33,515
15.34,504
15.35,498
15.36,503
15.37,501
15.38,503
15.39,500
15.4,501
15.41,497
15.42,478
15.43,516
15.44,638
15.45,712
15.46,612
15.47,471
15.48,420
15.49,445
15.5,456
15.51,478
15.52,492
15.53,498
15.54,504
15.55,506
15.56,508
15.57,513
15.58,519
15.59,519
15.6,524
15.61,533
15.62,537
15.63,545
15.64,555
15.65,561
15.66,568
15.67,565
15.68,554
15.69,539
15.7,517
15.71,492
15.72,468
15.73,454
15.74,442
15.75,444
15.76,450
15.77,447
15.78,455
15.79,460
15.8,463
15.81,470
15.82,471
15.83,476
15.84,483
15.85,486
15.86,487
15.87,487
15.88,492
15.89,496
15.9,493
15.91,498
15.92,496
15.93,499
15.94,499
15.95,503
15.96,502
15.97,504
15.98,501
15.99,505
16,504
16.01,506
16.02,506
16.03,504
16.04,505
16.05,507
16.06,508
16.07,507
16.08,510
16.09,505
16.1,512
16.11,510
16.12,507
16.13,511
16.14,513
16.15,512
16.16,514
16.17,514
16.18,511
16.19,523
16.2,525
16.21,529
16.22,510
16.23,502
16.24,499
16.25,502
16.26,501
16.27,499
16.28,500
16.29,502
16.3,496
16.31,481
16.32,532
16.33,653
16.34,689
16.35,571
16.36,462
16.37,428
16.38,447
16.39,462
16.4,479
16.41,495
16.42,499
16.43,505
16.44,512
16.45,513
16.46,519
16.47,518
16.48,524
16.49,531
16.5,536
16.51,545
16.52,553
16.53,561
16.54,569
16.55,570
16.56,569
16.57,555
16.58,539
16.59,510
16.6,483
16.61,462
16.62,450
16.63,444
16.64,446
16.65,447
16.66,451
16.67,451
16.68,456
16.69,463
16.7,470
16.71,472
16.72,479
16.73,481
16.74,486
16.75,488
16.76,493
16.77,496
16.78,500
16.79,500
16.8,498
16.81,495
16.82,503
16.83,503
16.84,504
16.85,502
16.86,506
16.87,504
16.88,508
16.89,507
16.9,507
16.91,509
16.92,504
16.93,508
16.94,510
16.95,509
16.96,512
16.97,512
16.98,507
16.99,509
17,509
17.01,509
17.02,508
17.03,509
17.04,512
17.05,512
17.06,516
17.07,508
17.08,518
17.09,520
17.1,524
17.11,508
17.12,500
17.13,502
17.14,498
17.15,500
17.16,499
17.17,497
17.18,503
17.19,501
17.2,480
17.21,518
17.22,641
17.23,721
17.24,615
17.25,473
17.26,418
17.27,441
17.28,454
17.29,485
17.3,491
17.31,500
17.32,508
17.33,501
17.34,505
17.35,515
17.36,524
17.37,518
17.38,525
17.39,533
17.4,546
17.41,547
17.42,566
17.43,568
17.44,563
17.45,564
17.46,557
17.47,541
17.48,521
17.49,497
17.5,469
17.51,453
17.52,448
17.53,444
17.54,450
17.55,448
17.56,460
17.57,468
17.58,463
17.59,464
17.6,476
17.61,483
17.62,479
17.63,484
17.64,489
17.65,494
17.66,487
17.67,491
17.68,496
17.69,502
17.7,502
17.71,502
17.72,501
17.73,503
17.74,504
17.75,505
17.76,500
17.77,508
17.78,505
17.79,508
17.8,504
17.81,510
17.82,502
17.83,504
17.84,515
17.85,502
17.86,504
17.87,504
17.88,508
17.89,506
17.9,508
17.91,508
17.92,511
17.93,514
17.94,513
17.95,511
17.96,519
17.97,519
17.98,527
17.99,512
18,500
18.01,500
18.02,499
18.03,503
18.04,499
18.05,499
18.06,503
18.07,501
18.08,486
18.09,497
18.1,614
18.11,735
18.12,639
18.13,492
18.14,414
18.15,438
18.16,451
18.17,472
18.18,490
18.19,496
18.2,498
18.21,504
18.22,509
18.23,510
18.24,512
18.25,520
18.26,521
18.27,528
18.28,541
18.29,542
18.3,553
18.31,563
18.32,571
18.33,573
18.34,561
18.35,546
18.36,519
18.37,498
18.38,472
18.39,451
18.4,446
18.41,447
18.42,441
18.43,451
18.44,452
18.45,461
18.46,463
18.47,470
18.48,480
18.49,476
18.5,480
18.51,486
18.52,487
18.53,487
18.54,493
18.55,499
18.56,501
18.57,498
18.58,499
18.59,499
18.6,501
18.61,508
18.62,498
18.63,504
18.64,504
18.65,511
18.66,504
18.67,506
18.68,504
18.69,505
18.7,507
18.71,509
18.72,509
18.73,510
18.74,509
18.75,512
18.76,510
18.77,507
18.78,505
18.79,509
18.8,511
18.81,512
18.82,510
18.83,511
18.84,512
18.85,517
18.86,522
18.87,519
18.88,504
18.89,502
18.9,500
18.91,501
18.92,496
18.93,503
18.94,499
18.95,500
18.96,503
18.97,480
18.98,530
18.99,650
19,707
19.01,589
19.02,466
19.03,417
19.04,446
19.05,454
19.06,478
19.07,494
19.08,500
19.09,507
19.1,504
19.11,508
19.12,512
19.13,521
19.14,518
19.15,524
19.16,532
19.17,536
19.18,547
19.19,556
19.2,567
19.21,569
19.22,561
19.23,556
19.24,536
19.25,508
19.26,489
19.27,462
19.28,450
19.29,442
19.3,441
19.31,443
19.32,449
19.33,457
19.34,459
19.35,460
19.36,468
19.37,478
19.38,481
19.39,482
19.4,484
19.41,486
19.42,490
19.43,496
19.44,496
19.45,496
19.46,501
19.47,503
19.48,504
19.49,500
19.5,500
19.51,504
19.52,505
19.53,507
19.54,511
19.55,503
19.56,507
19.57,507
19.58,506
19.59,505
19.6,507
19.61,508
19.62,507
19.63,514
19.64,511
19.65,516
19.66,515
19.67,515
19.68,512
19.69,519
19.7,524
19.71,524
19.72,509
19.73,500
19.74,504
19.75,502
19.76,508
19.77,501
19.78,501
19.79,502
19.8,499
19.81,480
19.82,527
19.83,644
19.84,701
19.85,584
19.86,468
19.87,422
19.88,444
19.89,459
19.9,478
19.91,493
19.92,502
19.93,507
19.94,509
19.95,512
19.96,520
19.97,520
19.98,526
19.99,528
20,540
20.01,541
20.02,552
20.03,561
20.04,569
20.05,571
20.06,564
20.07,554
20.08,535
20.09,508
20.1,481
20.11,461
20.12,447
20.13,441
20.14,440
20.15,446
20.16,451
20.17,454
20.18,463
20.19,463
20.2,471
20.21,470
20.22,473
20.23,483
20.24,485
20.25,489
20.26,491
20.27,491
20.28,496
20.29,496
20.3,498
20.31,499
20.32,503
20.33,503
20.34,500
20.35,503
20.36,504
20.37,500
20.38,505
20.39,504
20.4,506
20.41,504
20.42,504
20.43,507
20.44,505
20.45,504
20.46,507
20.47,504
20.48,511
20.49,507
20.5,507
20.51,513
20.52,511
20.53,515
20.54,511
20.55,520
20.56,522
20.57,526
20.58,515
20.59,501
20.6,499
20.61,503
20.62,498
20.63,504
20.64,501
20.65,504
20.66,501
20.67,481
20.68,493
20.69,603
20.7,729
20.71,650
20.72,503
20.73,422
20.74,435
20.75,456
20.76,470
20.77,489
20.78,497
20.79,505
20.8,507
20.81,513
20.82,512
20.83,515
20.84,519
20.85,525
20.86,531
20.87,534
20.88,545
20.89,552
20.9,563
20.91,567
20.92,567
20.93,558
20.94,545
20.95,520
20.96,495
20.97,470
20.98,461
20.99,448
21,442
21.01,448
21.02,452
21.03,450
21.04,460
21.05,466
21.06,472
21.07,472
21.08,478
21.09,479
21.1,486
21.11,489
21.12,491
21.13,493
21.14,495
21.15,496
21.16,496
21.17,497
21.18,503
21.19,504
21.2,502
21.21,504
21.22,503
21.23,505
21.24,509
21.25,505
21.26,506
21.27,507
21.28,508
21.29,508
21.3,505
21.31,510
21.32,513
21.33,509
21.34,506
21.35,508
21.36,510
21.37,509
21.38,515
21.39,514
21.4,515
21.41,508
21.42,518
21.43,524
21.44,523
21.45,505
21.46,503
21.47,500
21.48,503
21.49,503
21.5,501
21.51,504
21.52,500
21.53,495
21.54,483
21.55,494
21.56,615
21.57,726
21.58,632
21.59,481
21.6,416
21.61,439
21.62,458
21.63,476
21.64,491
21.65,495
21.66,503
21.67,510
21.68,512
21.69,512
21.7,515
21.71,518
21.72,527
21.73,531
21.74,538
21.75,552
21.76,558
21.77,566
21.78,569
21.79,573
21.8,560
21.81,543
21.82,512
21.83,492
21.84,479
21.85,451
21.86,443
21.87,440
21.88,447
21.89,447
21.9,448
21.91,459
21.92,463
21.93,470
21.94,481
21.95,479
21.96,480
21.97,487
21.98,486
21.99,496
22,496
22.01,491
22.02,494
22.03,502
22.04,503
22.05,501
22.06,504
22.07,508
22.08,508
22.09,505
22.1,500
22.11,506
22.12,501
22.13,508
22.14,506
22.15,508
22.16,507
22.17,508
22.18,504
22.19,509
22.2,518
22.21,505
22.22,506
22.23,508
22.24,511
22.25,513
22.26,514
22.27,514
22.28,511
22.29,521
22.3,531
22.31,524
22.32,505
22.33,502
22.34,500
22.35,502
22.36,502
22.37,499
22.38,499
22.39,499
22.4,496
22.41,477
22.42,515
22.43,643
22.44,708
22.45,600
22.46,473
22.47,420
22.48,444
22.49,457
22.5,478
22.51,491
22.52,500
22.53,503
22.54,506
22.55,509
22.56,512
22.57,519
22.58,516
22.59,527
22.6,529
22.61,541
22.62,550
22.63,557
22.64,566
22.65,566
22.66,565
22.67,553
22.68,537
22.69,513
22.7,484
22.71,465
22.72,451
22.73,447
22.74,443
22.75,449
22.76,451
22.77,456
22.78,460
22.79,464
22.8,472
22.81,476
22.82,478
22.83,483
22.84,487
22.85,487
22.86,490
22.87,492
22.88,497
22.89,497
22.9,501
22.91,504
22.92,499
22.93,503
22.94,502
22.95,510
22.96,504
22.97,504
22.98,506
22.99,506
23,507
23.01,504
23.02,505
23.03,508
23.04,509
23.05,507
23.06,518
23.07,505
23.08,505
23.09,510
23.1,506
23.11,509
23.12,508
23.13,515
23.14,512
23.15,521
23.16,517
23.17,519
23.18,519
23.19,503
23.2,509
23.21,495
23.22,497
23.23,500
23.24,506
23.25,507
23.26,508
23.27,490
23.28,487
23.29,551
23.3,695
23.31,690
23.32,554
23.33,444
23.34,423
23.35,452
23.36,467
23.37,491
23.38,495
23.39,498
23.4,504
23.41,512
23.42,505
23.43,513
23.44,513
23.45,522
23.46,528
23.47,532
23.48,547
23.49,554
23.5,564
23.51,562
23.52,560
23.53,565
23.54,547
23.55,528
23.56,502
23.57,479
23.58,459
23.59,451
23.6,449
23.61,438
23.62,443
23.63,451
23.64,450
23.65,459
23.66,458
23.67,472
23.68,477
23.69,474
23.7,481
23.71,482
23.72,483
23.73,486
23.74,495
23.75,497
23.76,497
23.77,495
23.78,498
23.79,496
23.8,504
23.81,504
23.82,507
23.83,502
23.84,504
23.85,503
23.86,509
23.87,511
23.88,505
23.89,509
23.9,508
23.91,509
23.92,509
23.93,510
23.94,509
23.95,508
23.96,513
23.97,510
23.98,516
23.99,511
24,511
24.01,516
24.02,517
24.03,515
24.04,526
24.05,528
24.06,515
24.07,500
24.08,502
24.09,501
24.1,502
24.11,507
24.12,501
24.13,504
24.14,504
24.15,491
24.16,484
24.17,567
24.18,707
24.19,686
24.2,546
24.21,432
24.22,424
24.23,451
24.24,464
24.25,487
24.26,496
24.27,496
24.28,509
24.29,502
24.3,512
24.31,511
24.32,511
24.33,519
24.34,527
24.35,532
24.36,542
24.37,558
24.38,559
24.39,557
24.4,562
24.41,561
24.42,551
24.43,532
24.44,504
24.45,481
24.46,459
24.47,449
24.48,437
24.49,443
24.5,444
24.51,448
24.52,450
24.53,460
24.54,462
24.55,470
24.56,476
24.57,476
24.58,482
24.59,486
24.6,487
24.61,491
24.62,494
24.63,496
24.64,495
24.65,501
24.66,503
24.67,499
24.68,502
24.69,504
24.7,504
24.71,507
24.72,505
24.73,505
24.74,505
24.75,499
24.76,512
24.77,501
24.78,509
24.79,507
24.8,509
24.81,509
24.82,508
24.83,502
24.84,511
24.85,510
24.86,510
24.87,506
24.88,508
24.89,515
24.9,504
24.91,512
24.92,507
24.93,508
24.94,517
24.95,526
24.96,524
24.97,508
24.98,505
24.99,507
25,504
25.01,503
25.02,502
25.03,504
25.04,498
25.05,487
25.06,487
25.07,553
25.08,669
25.09,709
25.1,570
25.11,438
25.12,421
25.13,439
25.14,463
25.15,479
25.16,489
25.17,499
25.18,503
25.19,501
25.2,507
25.21,511
25.22,512
25.23,522
25.24,528
25.25,533
25.26,549
25.27,555
25.28,561
25.29,566
25.3,572
25.31,572
25.32,553
25.33,534
25.34,510
25.35,491
25.36,466
25.37,455
25.38,444
25.39,441
25.4,446
25.41,452
25.42,456
25.43,462
25.44,467
25.45,470
25.46,480
25.47,471
25.48,487
25.49,481
25.5,493
25.51,498
25.52,491
25.53,495
25.54,494
25.55,500
25.56,498
25.57,505
25.58,499
25.59,502
25.6,502
25.61,497
25.62,510
25.63,498
25.64,503
25.65,508
25.66,504
25.67,503
25.68,509
25.69,510
25.7,508
25.71,507
25.72,504
25.73,507
25.74,512
25.75,509
25.76,508
25.77,505
25.78,509
25.79,513
25.8,512
25.81,515
25.82,511
25.83,521
25.84,524
25.85,525
25.86,509
25.87,502
25.88,500
25.89,501
25.9,504
25.91,505
25.92,508
25.93,501
25.94,497
25.95,479
25.96,525
25.97,652
25.98,707
25.99,585
26,465
26.01,425
26.02,439
26.03,459
26.04,472
26.05,488
26.06,499
26.07,496
26.08,510
26.09,509
26.1,521
26.11,513
26.12,523
26.13,525
26.14,521
26.15,535
26.16,556
26.17,555
26.18,575
26.19,567
26.2,568
26.21,563
26.22,542
26.23,511
26.24,487
26.25,466
26.26,444
26.27,441
26.28,447
26.29,449
26.3,446
26.31,453
26.32,454
26.33,467
26.34,464
26.35,473
26.36,477
26.37,488
26.38,485
26.39,491
26.4,488
26.41,497
26.42,487
26.43,500
26.44,511
26.45,486
26.46,504
26.47,498
26.48,504
26.49,500
26.5,515
26.51,501
26.52,508
26.53,508
26.54,499
26.55,510
26.56,507
26.57,504
26.58,508
26.59,512
26.6,503
26.61,512
26.62,510
26.63,507
26.64,515
26.65,512
26.66,515
26.67,515
26.68,517
26.69,518
26.7,515
26.71,526
26.72,529
26.73,515
26.74,504
26.75,506
26.76,499
26.77,503
26.78,505
26.79,499
26.8,504
26.81,512
26.82,492
26.83,484
26.84,560
26.85,691
26.86,687
26.87,547
26.88,447
26.89,419
26.9,450
26.91,465
26.92,479
26.93,490
26.94,501
26.95,513
26.96,515
26.97,517
26.98,519
26.99,527
27,514
27.01,513
27.02,530
27.03,537
27.04,547
27.05,554
27.06,556
27.07,567
27.08,556
27.09,547
27.1,532
27.11,504
27.12,480
27.13,462
27.14,451
27.15,440
27.16,444
27.17,447
27.18,449
27.19,457
27.2,465
27.21,468
27.22,466
27.23,473
27.24,478
27.25,484
27.26,486
27.27,487
27.28,491
27.29,494
27.3,493
27.31,501
27.32,499
27.33,496
27.34,502
27.35,503
27.36,505
27.37,501
27.38,503
27.39,503
27.4,504
27.41,507
27.42,506
27.43,504
27.44,503
27.45,510
27.46,507
27.47,508
27.48,507
27.49,505
27.5,511
27.51,505
27.52,511
27.53,515
27.54,510
27.55,513
27.56,516
27.57,509
27.58,524
27.59,524
27.6,522
27.61,504
27.62,508
27.63,505
27.64,497
27.65,503
27.66,504
27.67,498
27.68,501
27.69,497
27.7,483
27.71,551
27.72,673
27.73,700
27.74,569
27.75,449
27.76,415
27.77,451
27.78,462
27.79,484
27.8,494
27.81,499
27.82,504
27.83,511
27.84,511
27.85,515
27.86,518
27.87,519
27.88,525
27.89,529
27.9,541
27.91,549
27.92,560
27.93,568
27.94,564
27.95,560
27.96,556
27.97,536
27.98,512
27.99,481
28,464
28.01,446
28.02,439
28.03,440
28.04,445
28.05,450
28.06,455
28.07,459
28.08,467
28.09,472
28.1,471
28.11,480
28.12,481
28.13,482
28.14,488
28.15,487
28.16,497
28.17,494
28.18,496
28.19,500
28.2,497
28.21,500
28.22,501
28.23,501
28.24,504
28.25,507
28.26,510
28.27,510
28.28,505
28.29,502
28.3,508
28.31,514
28.32,509
28.33,512
28.34,496
28.35,497
28.36,498
28.37,508
28.38,514
28.39,510
28.4,536
28.41,512
28.42,496
28.43,495
28.44,495
28.45,500
28.46,522
28.47,521
28.48,519
28.49,560
28.5,455
28.51,508
28.52,513
28.53,446
28.54,443
28.55,518
28.56,504
28.57,414
28.58,520
28.59,647
28.6,742
28.61,635
28.62,487
28.63,417
28.64,447
28.65,489
28.66,479
28.67,502
28.68,503
28.69,534
28.7,516
28.71,529
28.72,543
28.73,514
28.74,520
28.75,524
28.76,544
28.77,560
28.78,532
28.79,561
28.8,536
28.81,560
28.82,593
28.83,543
28.84,544
28.85,526
28.86,481
28.87,455
28.88,483
28.89,417
28.9,426
28.91,436
28.92,458
28.93,454
28.94,449
28.95,447
28.96,472
28.97,466
28.98,479
28.99,472
29,479
29.01,484
29.02,487
29.03,500
29.04,483
29.05,535
29.06,485
29.07,482
29.08,518
29.09,480
29.1,509
29.11,503
29.12,493
29.13,499
29.14,507
29.15,511
29.16,499
29.17,510
29.18,510
29.19,515
29.2,515
29.21,509
29.22,504
29.23,535
29.24,492
29.25,497
29.26,506
29.27,515
29.28,514
29.29,515
29.3,512
29.31,523
29.32,526
29.33,528
29.34,505
29.35,495
29.36,502
29.37,505
29.38,501
29.39,505
29.4,502
29.41,504
29.42,495
29.43,485
29.44,566
29.45,701
29.46,697
29.47,542
29.48,437
29.49,428
29.5,452
29.51,464
29.52,487
29.53,497
29.54,499
29.55,505
29.56,512
29.57,510
29.58,515
29.59,519
29.6,522
29.61,526
29.62,533
29.63,544
29.64,551
29.65,565
29.66,565
29.67,568
29.68,562
29.69,554
29.7,530
29.71,503
29.72,474
29.73,456
29.74,441
29.75,444
29.76,439
29.77,447
29.78,452
29.79,456
29.8,459
29.81,467
29.82,466
29.83,475
29.84,481
29.85,482
29.86,488
29.87,490
29.88,489
29.89,492
29.9,497
29.91,502
29.92,500
29.93,500
29.94,502
29.95,501
29.96,501
29.97,508
29.98,501
29.99,508
30,509
30.01,504
30.02,504
30.03,507
30.04,508
30.05,527
30.06,511
30.07,507
30.08,496
30.09,505
30.1,500
30.11,508
30.12,503
30.13,519
30.14,525
30.15,526
30.16,521
30.17,505
30.18,467
30.19,508
30.2,500
30.21,497
30.22,495
30.23,498
30.24,516
30.25,484
30.26,492
30.27,595
30.28,728
30.29,642
30.3,505
30.31,430
30.32,441
30.33,445
30.34,478
30.35,484
30.36,476
30.37,511
30.38,487
30.39,526
30.4,507
30.41,512
30.42,543
30.43,508
30.44,536
30.45,515
30.46,559
30.47,570
30.48,561
30.49,569
30.5,568
30.51,578
30.52,547
30.53,520
30.54,478
30.55,483
30.56,453
30.57,451
30.58,451
30.59,450
30.6,433
30.61,451
30.62,470
30.63,462
30.64,472
30.65,470
30.66,469
30.67,466
30.68,497
30.69,491
30.7,455
30.71,481
30.72,499
30.73,526
30.74,504
30.75,486
30.76,516
30.77,496
30.78,491
30.79,505
30.8,498
30.81,520
30.82,500
30.83,476
30.84,540
30.85,475
30.86,522
30.87,505
30.88,504
30.89,513
30.9,508
30.91,523
30.92,518
30.93,506
30.94,531
30.95,489
30.96,505
30.97,536
30.98,535
30.99,534
31,510
31.01,495
31.02,513
31.03,496
31.04,502
31.05,470
31.06,506
31.07,498
31.08,524
31.09,461
31.1,512
31.11,609
31.12,727
31.13,583
31.14,490
31.15,466
31.16,414
31.17,483
31.18,467
31.19,508
31.2,536
31.21,500
31.22,536
31.23,550
31.24,507
31.25,487
31.26,533
31.27,533
31.28,543
31.29,535
31.3,561
31.31,527
31.32,543
31.33,598
31.34,545
31.35,589
31.36,552
31.37,518
31.38,494
31.39,433
31.4,449
31.41,472
31.42,448
31.43,438
31.44,439
31.45,448
31.46,504
31.47,512
31.48,459
31.49,475
31.5,486
31.51,480
31.52,489
31.53,472
31.54,515
31.55,483
31.56,546
31.57,516
31.58,474
31.59,465
31.6,544
31.61,523
31.62,516
31.63,533
31.64,497
31.65,504
31.66,493
31.67,522
31.68,465
31.69,537
31.7,503
31.71,502
31.72,496
31.73,502
31.74,524
31.75,508
31.76,499
31.77,473
31.78,485
31.79,511
31.8,507
31.81,502
31.82,610
31.83,611
31.84,633
31.85,541
31.86,440
31.87,428
31.88,419
31.89,461
31.9,505
31.91,495
31.92,539
31.93,488
31.94,517
31.95,503
31.96,531
31.97,496
31.98,497
31.99,541
32,526
32.01,540
32.02,525
32.03,587
32.04,578
32.05,560
32.06,539
32.07,554
32.08,476
32.09,515
32.1,464
32.11,448
32.12,455
32.13,457
32.14,468
32.15,435
32.16,421
32.17,476
32.18,453
32.19,480
32.2,487
32.21,473
32.22,497
32.23,485
32.24,491
32.25,475
32.26,464
32.27,526
32.28,494
32.29,481
32.3,499
32.31,513
32.32,511
32.33,519
32.34,504
32.35,460
32.36,523
32.37,488
32.38,504
32.39,513
32.4,474
32.41,496
32.42,517
32.43,480
32.44,521
32.45,505
32.46,467
32.47,549
32.48,531
32.49,493
32.5,481
32.51,487
32.52,511
32.53,491
32.54,543
32.55,472
32.56,511
32.57,485
32.58,487
32.59,524
32.6,643
32.61,660
32.62,529
32.63,468
32.64,412
32.65,466
32.66,464
32.67,476
32.68,503
32.69,514
32.7,497
32.71,518
32.72,520
32.73,500
32.74,538
32.75,512
32.76,541
32.77,535
32.78,527
32.79,513
32.8,549
32.81,559
32.82,558
32.83,578
32.84,520
32.85,539
32.86,495
32.87,466
32.88,467
32.89,465
32.9,447
32.91,472
32.92,446
32.93,480
32.94,480
32.95,468
32.96,516
32.97,466
32.98,491
32.99,494
33,476
33.01,495
33.02,484
33.03,494
33.04,490
33.05,489
33.06,505
33.07,482
33.08,524
33.09,508
33.1,494
33.11,501
33.12,492
33.13,507
33.14,510
33.15,504
33.16,496
33.17,499
33.18,491
33.19,527
33.2,485
33.21,505
33.22,500
33.23,516
33.24,491
33.25,500
33.26,544
33.27,501
33.28,548
33.29,485
33.3,470
33.31,512
33.32,476
33.33,519
33.34,476
33.35,481
33.36,492
33.37,524
33.38,511
33.39,679
33.4,679
33.41,544
33.42,428
33.43,431
33.44,451
33.45,441
33.46,500
33.47,493
33.48,500
33.49,497
33.5,513
33.51,520
33.52,508
33.53,525
33.54,508
33.55,511
33.56,499
33.57,573
33.58,497
33.59,547
33.6,575
33.61,549
33.62,537
33.63,556
33.64,505
33.65,512
33.66,485
33.67,455
33.68,452
33.69,467
33.7,465
33.71,457
33.72,485
33.73,465
33.74,480
33.75,478
33.76,503
33.77,470
33.78,484
33.79,481
33.8,498
33.81,505
33.82,496
33.83,462
33.84,521
33.85,475
33.86,492
33.87,511
33.88,494
33.89,499
33.9,488
33.91,525
33.92,483
33.93,509
33.94,506
33.95,500
33.96,478
33.97,521
33.98,519
33.99,511
34,530
34.01,527
34.02,507
34.03,516
34.04,529
34.05,493
34.06,516
34.07,488
34.08,527
34.09,524
34.1,513
34.11,531
34.12,507
34.13,493
34.14,516
34.15,523
34.16,483
34.17,550
34.18,509
34.19,519
34.2,490
34.21,481
34.22,565
34.23,684
34.24,671
34.25,567
34.26,486
34.27,415
34.28,465
34.29,459
34.3,499
34.31,508
34.32,502
34.33,519
34.34,504
34.35,504
34.36,512
34.37,527
34.38,514
34.39,529
34.4,528
34.41,544
34.42,521
34.43,567
34.44,548
34.45,566
34.46,540
34.47,531
34.48,552
34.49,511
34.5,478
34.51,472
34.52,472
34.53,481
34.54,465
34.55,457
34.56,457
34.57,458
34.58,497
34.59,492
34.6,463
34.61,503
34.62,486
34.63,481
34.64,489
34.65,495
34.66,492
34.67,492
34.68,520
34.69,490
34.7,515
34.71,503
34.72,494
34.73,516
34.74,503
34.75,505
34.76,500
34.77,513
34.78,526
34.79,521
34.8,496
34.81,516
34.82,503
34.83,513
34.84,507
34.85,496
34.86,516
34.87,507
34.88,536
34.89,517
34.9,504
34.91,535
34.92,515
34.93,517
34.94,505
34.95,507
34.96,518
34.97,517
34.98,513
34.99,520
35,531
35.01,510
35.02,526
35.03,515
35.04,504
35.05,494
35.06,501
35.07,504
35.08,504
35.09,488
35.1,506
35.11,503
35.12,480
35.13,495
35.14,626
35.15,775
35.16,710
35.17,522
35.18,428
35.19,428
35.2,440
35.21,458
35.22,482
35.23,478
35.24,482
35.25,492
35.26,498
35.27,505
35.28,499
35.29,513
35.3,512
35.31,541
35.32,537
35.33,547
35.34,558
35.35,575
35.36,574
35.37,572
35.38,581
35.39,552
35.4,513
35.41,510
35.42,481
35.43,457
35.44,439
35.45,435
35.46,433
35.47,444
35.48,447
35.49,446
35.5,458
35.51,470
35.52,467
35.53,463
35.54,472
35.55,496
35.56,483
35.57,481
35.58,488
35.59,494
35.6,504
35.61,487
35.62,489
35.63,485
35.64,488
35.65,511
35.66,492
35.67,508
35.68,487
35.69,510
35.7,512
35.71,508
35.72,504
35.73,511
35.74,509
35.75,496
35.76,517
35.77,505
35.78,520
35.79,512
35.8,524
35.81,523
35.82,533
35.83,527
35.84,509
35.85,519
35.86,533
35.87,513
35.88,526
35.89,512
35.9,539
35.91,531
35.92,512
35.93,510
35.94,499
35.95,504
35.96,518
35.97,490
35.98,502
35.99,489
36,490
36.01,497
36.02,494
36.03,483
36.04,629
36.05,747
36.06,675
36.07,511
36.08,423
36.09,408
36.1,454
36.11,452
36.12,475
36.13,476
36.14,490
36.15,480
36.16,485
36.17,510
36.18,508
36.19,503
36.2,528
36.21,514
36.22,523
36.23,549
36.24,555
36.25,559
36.26,561
36.27,564
36.28,566
36.29,542
36.3,510
36.31,488
36.32,467
36.33,451
36.34,448
36.35,437
36.36,457
36.37,440
36.38,411
36.39,447
36.4,457
36.41,453
36.42,495
36.43,467
36.44,468
36.45,469
36.46,467
36.47,487
36.48,482
36.49,493
36.5,492
36.51,498
36.52,486
36.53,480
36.54,485
36.55,502
36.56,502
36.57,503
36.58,500
36.59,510
36.6,493
36.61,499
36.62,492
36.63,504
36.64,508
36.65,516
36.66,509
36.67,504
36.68,505
36.69,511
36.7,500
36.71,514
36.72,513
36.73,526
36.74,501
36.75,531
36.76,532
36.77,518
36.78,505
36.79,511
36.8,512
36.81,520
36.82,506
36.83,496
36.84,500
36.85,506
36.86,491
36.87,479
36.88,573
36.89,707
36.9,689
36.91,557
36.92,450
36.93,432
36.94,455
36.95,448
36.96,483
36.97,486
36.98,503
36.99,503
37,510
37.01,512
37.02,517
37.03,516
37.04,520
37.05,532
37.06,514
37.07,530
37.08,544
37.09,541
37.1,546
37.11,552
37.12,546
37.13,543
37.14,519
37.15,500
37.16,495
37.17,461
37.18,454
37.19,446
37.2,439
37.21,438
37.22,443
37.23,463
37.24,459
37.25,472
37.26,476
37.27,481
37.28,482
37.29,492
37.3,483
37.31,490
37.32,497
37.33,499
37.34,514
37.35,504
37.36,510
37.37,504
37.38,505
37.39,508
37.4,513
37.41,512
37.42,512
37.43,511
37.44,538
37.45,515
37.46,504
37.47,508
37.48,543
37.49,509
37.5,516
37.51,496
37.52,516
37.53,537
37.54,535
37.55,488
37.56,527
37.57,516
37.58,516
37.59,532
37.6,521
37.61,524
37.62,514
37.63,537
37.64,497
37.65,518
37.66,504
37.67,493
37.68,508
37.69,505
37.7,506
37.71,534
37.72,507
37.73,488
37.74,486
37.75,586
37.76,768
37.77,689
37.78,550
37.79,456
37.8,450
37.81,439
37.82,492
37.83,516
37.84,472
37.85,518
37.86,512
37.87,513
37.88,527
37.89,532
37.9,509
37.91,528
37.92,534
37.93,529
37.94,522
37.95,564
37.96,545
37.97,563
37.98,565
37.99,559
38,545
38.01,528
38.02,532
38.03,434
38.04,437
38.05,435
38.06,416
38.07,446
38.08,439
38.09,458
38.1,471
38.11,453
38.12,470
38.13,482
38.14,461
38.15,488
38.16,498
38.17,471
38.18,510
38.19,503
38.2,482
38.21,503
38.22,481
38.23,512
38.24,529
38.25,479
38.26,533
38.27,481
38.28,522
38.29,535
38.3,505
38.31,513
38.32,483
38.33,517
38.34,527
38.35,510
38.36,549
38.37,509
38.38,495
38.39,532
38.4,564
38.41,513
38.42,533
38.43,477
38.44,469
38.45,516
38.46,518
38.47,568
38.48,498
38.49,501
38.5,507
38.51,443
38.52,488
38.53,518
38.54,671
38.55,640
38.56,531
38.57,470
38.58,440
38.59,492
38.6,453
38.61,495
38.62,492
38.63,510
38.64,531
38.65,504
38.66,541
38.67,520
38.68,530
38.69,560
38.7,509
38.71,542
38.72,525
38.73,602
38.74,529
38.75,556
38.76,568
38.77,536
38.78,526
38.79,551
38.8,484
38.81,486
38.82,470
38.83,425
38.84,463
38.85,460
38.86,436
38.87,449
38.88,460
38.89,474
38.9,450
38.91,485
38.92,486
38.93,476
38.94,503
38.95,488
38.96,484
38.97,470
38.98,489
38.99,519
39,478
39.01,527
39.02,507
39.03,476
39.04,494
39.05,544
39.06,484
39.07,509
39.08,525
39.09,488
39.1,520
39.11,482
39.12,535
39.13,522
39.14,490
39.15,536
39.16,491
39.17,532
39.18,517
39.19,493
39.2,505
39.21,487
39.22,478
39.23,497
39.24,487
39.25,531
39.26,501
39.27,510
39.28,562
39.29,688
39.3,647
39.31,483
39.32,470
39.33,420
39.34,483
39.35,472
39.36,458
39.37,496
39.38,516
39.39,505
39.4,532
39.41,508
39.42,531
39.43,505
39.44,546
39.45,551
39.46,504
39.47,547
39.48,553
39.49,553
39.5,549
39.51,516
39.52,547
39.53,529
39.54,527
39.55,483
39.56,451
39.57,488
39.58,476
39.59,435
39.6,456
39.61,466
39.62,455
39.63,481
39.64,480
39.65,477
39.66,455
39.67,465
39.68,514
39.69,488
39.7,497
39.71,493
39.72,488
39.73,503
39.74,486
39.75,487
39.76,499
39.77,517
39.78,512
39.79,525
39.8,505
39.81,507
39.82,496
39.83,491
39.84,517
39.85,503
39.86,501
39.87,488
39.88,493
39.89,529
39.9,489
39.91,505
39.92,497
39.93,540
39.94,502
39.95,541
39.96,529
39.97,503
39.98,486
39.99,509
40,510
40.01,493
40.02,497
40.03,471
40.04,496
40.05,482
40.06,579
40.07,661
40.08,649
40.09,504
40.1,467
40.11,444
40.12,442
40.13,482
40.14,496
40.15,487
40.16,531
40.17,522
40.18,483
40.19,512
40.2,521
40.21,526
40.22,528
40.23,516
40.24,528
40.25,542
40.26,548
40.27,534
40.28,552
40.29,545
40.3,532
40.31,543
40.32,486
40.33,491
40.34,510
40.35,450
40.36,434
40.37,445
40.38,456
40.39,459
40.4,456
40.41,466
40.42,448
40.43,489
40.44,467
40.45,499
40.46,481
40.47,485
40.48,499
40.49,503
40.5,491
40.51,507
40.52,505
40.53,509
40.54,500
40.55,528
40.56,497
40.57,492
40.58,496
40.59,507
40.6,515
40.61,495
40.62,483
40.63,514
40.64,512
40.65,496
40.66,509
40.67,494
40.68,504
40.69,508
40.7,515
40.71,486
40.72,493
40.73,519
40.74,518
40.75,498
40.76,528
40.77,521
40.78,519
40.79,511
40.8,499
40.81,495
40.82,505
40.83,519
40.84,488
40.85,511
40.86,485
40.87,500
40.88,487
40.89,595
40.9,732
40.91,661
40.92,509
40.93,435
40.94,446
40.95,463
40.96,463
40.97,495
40.98,496
40.99,478
41,512
41.01,510
41.02,517
41.03,521
41.04,510
41.05,513
41.06,535
41.07,534
41.08,543
41.09,543
41.1,553
41.11,583
41.12,558
41.13,532
41.14,587
41.15,507
41.16,466
41.17,482
41.18,468
41.19,440
41.2,455
41.21,475
41.22,460
41.23,437
41.24,452
41.25,467
41.26,483
41.27,467
41.28,487
41.29,506
41.3,483
41.31,475
41.32,492
41.33,489
41.34,482
41.35,517
41.36,470
41.37,475
41.38,513
41.39,516
41.4,501
41.41,517
41.42,521
41.43,480
41.44,476
41.45,487
41.46,482
41.47,547
41.48,490
41.49,522
41.5,515
41.51,488
41.52,502
41.53,486
41.54,512
41.55,498
41.56,527
41.57,502
41.58,501
41.59,528
41.6,502
41.61,509
41.62,522
41.63,478
41.64,486
41.65,506
41.66,500
41.67,460
41.68,505
41.69,496
41.7,482
41.71,471
41.72,532
41.73,651
41.74,717
41.75,601
41.76,420
41.77,435
41.78,440
41.79,438
41.8,462
41.81,477
41.82,483
41.83,495
41.84,488
41.85,523
41.86,508
41.87,491
41.88,511
41.89,521
41.9,533
41.91,516
41.92,537
41.93,540
41.94,553
41.95,561
41.96,566
41.97,571
41.98,529
41.99,505
42,472
42.01,472
42.02,456
42.03,454
42.04,443
42.05,440
42.06,430
42.07,465
42.08,441
42.09,475
42.1,470
42.11,486
42.12,444
42.13,495
42.14,480
42.15,485
42.16,492
42.17,498
42.18,493
42.19,492
42.2,488
42.21,492
42.22,524
42.23,515
42.24,510
42.25,488
42.26,499
42.27,484
42.28,509
42.29,502
42.3,510
42.31,500
42.32,488
42.33,505
42.34,528
42.35,514
42.36,515
42.37,518
42.38,533
42.39,519
42.4,515
42.41,525
42.42,511
42.43,521
42.44,519
42.45,514
42.46,499
42.47,501
42.48,518
42.49,508
42.5,506
42.51,503
42.52,498
42.53,497
42.54,602
42.55,732
42.56,695
42.57,526
42.58,445
42.59,421
42.6,453
42.61,459
42.62,506
42.63,526
42.64,526
42.65,496
42.66,509
42.67,528
42.68,520
42.69,524
42.7,546
42.71,538
42.72,533
42.73,546
42.74,580
42.75,558
42.76,583
42.77,561
42.78,563
42.79,543
42.8,534
42.81,499
42.82,492
42.83,455
42.84,437
42.85,448
42.86,457
42.87,463
42.88,449
42.89,456
42.9,445
42.91,480
42.92,482
42.93,488
42.94,481
42.95,477
42.96,500
42.97,497
42.98,503
42.99,485
43,502
43.01,529
43.02,498
43.03,524
43.04,510
43.05,509
43.06,506
43.07,520
43.08,512
43.09,512
43.1,493
43.11,530
43.12,514
43.13,538
43.14,510
43.15,510
43.16,511
43.17,516
43.18,527
43.19,526
43.2,540
43.21,540
43.22,532
43.23,497
43.24,507
43.25,504
43.26,511
43.27,490
43.28,503
43.29,512
43.3,515
43.31,503
43.32,455
43.33,524
43.34,626
43.35,732
43.36,669
43.37,492
43.38,435
43.39,449
43.4,463
43.41,471
43.42,478
43.43,506
43.44,515
43.45,519
43.46,498
43.47,542
43.48,510
43.49,485
43.5,505
43.51,555
43.52,507
43.53,560
43.54,610
43.55,537
43.56,574
43.57,565
43.58,575
43.59,530
43.6,516
43.61,532
43.62,446
43.63,473
43.64,449
43.65,438
43.66,452
43.67,424
43.68,482
43.69,477
43.7,457
43.71,520
43.72,479
43.73,470
43.74,497
43.75,487
43.76,479
43.77,482
43.78,518
43.79,539
43.8,492
43.81,506
43.82,447
43.83,519
43.84,492
43.85,504
43.86,493
43.87,457
43.88,507
43.89,508
43.9,505
43.91,480
43.92,536
43.93,511
43.94,463
43.95,558
43.96,497
43.97,474
43.98,565
43.99,513
44,508
44.01,529
44.02,506
44.03,493
44.04,489
44.05,545
44.06,462
44.07,487
44.08,541
44.09,454
44.1,504
44.11,479
44.12,531
44.13,678
44.14,679
44.15,525
44.16,435
44.17,463
44.18,451
44.19,460
44.2,519
44.21,466
44.22,488
44.23,517
44.24,475
44.25,526
44.26,512
44.27,548
44.28,493
44.29,524
44.3,561
44.31,554
44.32,491
44.33,560
44.34,593
44.35,499
44.36,543
44.37,545
44.38,527
44.39,480
44.4,490
44.41,454
44.42,489
44.43,450
44.44,416
44.45,475
44.46,475
44.47,453
44.48,458
44.49,478
44.5,487
44.51,483
44.52,506
44.53,513
44.54,481
44.55,494
44.56,507
44.57,463
44.58,545
44.59,503
44.6,487
44.61,508
44.62,468
44.63,513
44.64,528
44.65,495
44.66,496
44.67,481
44.68,480
44.69,491
44.7,533
44.71,523
44.72,512
44.73,490
44.74,472
44.75,473
44.76,523
44.77,491
44.78,506
44.79,536
44.8,453
44.81,497
44.82,480
44.83,505
44.84,531
44.85,632
44.86,655
44.87,543
44.88,422
44.89,461
44.9,486
44.91,473
44.92,491
44.93,492
44.94,493
44.95,526
44.96,508
44.97,500
44.98,512
44.99,563
45,535
45.01,505
45.02,536
45.03,530
45.04,551
45.05,536
45.06,557
45.07,568
45.08,539
45.09,551
45.1,513
45.11,473
45.12,470
45.13,458
45.14,463
45.15,447
45.16,452
45.17,454
45.18,459
45.19,463
45.2,454
45.21,476
45.22,473
45.23,495
45.24,493
45.25,483
45.26,491
45.27,512
45.28,497
45.29,487
45.3,483
45.31,508
45.32,505
45.33,503
45.34,523
45.35,505
45.36,482
45.37,500
45.38,530
45.39,527
45.4,506
45.41,488
45.42,528
45.43,508
45.44,508
45.45,513
45.46,489
45.47,504
45.48,506
45.49,520
45.5,536
45.51,512
45.52,500
45.53,500
45.54,478
45.55,509
45.56,480
45.57,493
45.58,513
45.59,495
45.6,451
45.61,496
45.62,620
45.63,665
45.64,571
45.65,485
45.66,417
45.67,467
45.68,480
45.69,487
45.7,496
45.71,512
45.72,516
45.73,516
45.74,522
45.75,534
45.76,513
45.77,515
45.78,517
45.79,550
45.8,537
45.81,535
45.82,547
45.83,553
45.84,549
45.85,533
45.86,529
45.87,531
45.88,494
45.89,495
45.9,440
45.91,464
45.92,445
45.93,468
45.94,463
45.95,464
45.96,468
45.97,451
45.98,496
45.99,485
46,492
46.01,487
46.02,490
46.03,497
46.04,463
46.05,510
46.06,515
46.07,477
46.08,513
46.09,501
46.1,504
46.11,519
46.12,511
46.13,509
46.14,507
46.15,494
46.16,503
46.17,516
46.18,501
46.19,519
46.2,497
46.21,508
46.22,495
46.23,515
46.24,520
46.25,527
46.26,507
46.27,505
46.28,529
46.29,525
46.3,508
46.31,500
46.32,508
46.33,504
46.34,512
46.35,508
46.36,515
46.37,507
46.38,505
46.39,470
46.4,481
46.41,542
46.42,630
46.43,659
46.44,543
46.45,462
46.46,445
46.47,470
46.48,471
46.49,484
46.5,502
46.51,511
46.52,509
46.53,504
46.54,529
46.55,529
46.56,508
46.57,518
46.58,514
46.59,536
46.6,522
46.61,537
46.62,554
46.63,552
46.64,557
46.65,537
46.66,538
46.67,519
46.68,512
46.69,480
46.7,460
46.71,464
46.72,455
46.73,469
46.74,454
46.75,454
46.76,480
46.77,484
46.78,475
46.79,481
46.8,485
46.81,492
46.82,494
46.83,465
46.84,509
46.85,500
46.86,494
46.87,493
46.88,499
46.89,512
46.9,504
46.91,508
46.92,484
46.93,507
46.94,503
46.95,508
46.96,504
46.97,489
46.98,489
46.99,507
47,519
47.01,504
47.02,507
47.03,512
47.04,488
47.05,504
47.06,511
47.07,510
47.08,515
47.09,505
47.1,521
47.11,529
47.12,503
47.13,481
47.14,490
47.15,517
47.16,498
47.17,495
47.18,508
47.19,512
47.2,506
47.21,488
47.22,480
47.23,554
47.24,671
47.25,628
47.26,509
47.27,446
47.28,449
47.29,462
47.3,474
47.31,487
47.32,512
47.33,523
47.34,511
47.35,529
47.36,518
47.37,513
47.38,510
47.39,550
47.4,521
47.41,529
47.42,549
47.43,534
47.44,546
47.45,542
47.46,554
47.47,553
47.48,528
47.49,508
47.5,497
47.51,479
47.52,464
47.53,448
47.54,447
47.55,471
47.56,447
47.57,466
47.58,468
47.59,468
47.6,482
47.61,486
47.62,488
47.63,465
47.64,497
47.65,492
47.66,493
47.67,510
47.68,489
47.69,500
47.7,493
47.71,487
47.72,506
47.73,500
47.74,505
47.75,497
47.76,489
47.77,513
47.78,496
47.79,508
47.8,510
47.81,490
47.82,475
47.83,519
47.84,516
47.85,500
47.86,518
47.87,505
47.88,512
47.89,517
47.9,518
47.91,518
47.92,486
47.93,511
47.94,527
47.95,524
47.96,494
47.97,509
47.98,505
47.99,505
48,494
48.01,499
48.02,519
48.03,495
48.04,500
48.05,464
48.06,510
48.07,591
48.08,669
48.09,569
48.1,458
48.11,453
48.12,448
48.13,475
48.14,483
48.15,475
48.16,503
48.17,526
48.18,527
48.19,512
48.2,504
48.21,522
48.22,526
48.23,524
48.24,533
48.25,531
48.26,545
48.27,548
48.28,554
48.29,554
48.3,542
48.31,534
48.32,529
48.33,507
48.34,489
48.35,472
48.36,468
48.37,452
48.38,446
48.39,462
48.4,464
48.41,470
48.42,472
48.43,466
48.44,476
48.45,483
48.46,482
48.47,491
48.48,481
48.49,498
48.5,489
48.51,499
48.52,498
48.53,501
48.54,500
48.55,504
48.56,505
48.57,500
48.58,503
48.59,497
48.6,499
48.61,503
48.62,503
48.63,504
48.64,506
48.65,507
48.66,504
48.67,503
48.68,503
48.69,507
48.7,507
48.71,510
48.72,508
48.73,510
48.74,513
48.75,507
48.76,512
48.77,514
48.78,522
48.79,519
48.8,508
48.81,500
48.82,501
48.83,488
48.84,499
48.85,506
48.86,505
48.87,502
48.88,498
48.89,487
48.9,528
48.91,631
48.92,653
48.93,528
48.94,455
48.95,442
48.96,460
48.97,469
48.98,492
48.99,505
49,506
49.01,519
49.02,518
49.03,512
49.04,515
49.05,521
49.06,522
49.07,527
49.08,531
49.09,542
49.1,549
49.11,547
49.12,555
49.13,552
49.14,542
49.15,536
49.16,525
49.17,510
49.18,487
49.19,473
49.2,459
49.21,464
49.22,459
49.23,460
49.24,465
49.25,468
49.26,469
49.27,480
49.28,480
49.29,490
49.3,483
49.31,488
49.32,492
49.33,496
49.34,503
49.35,496
49.36,503
49.37,504
49.38,503
49.39,495
49.4,502
49.41,500
49.42,498
49.43,499
49.44,505
49.45,503
49.46,496
49.47,501
49.48,503
49.49,504
49.5,506
49.51,505
49.52,508
49.53,508
49.54,511
49.55,503
49.56,508
49.57,512
49.58,505
49.59,513
49.6,515
49.61,511
49.62,512
49.63,521
49.64,532
49.65,521
49.66,504
49.67,497
49.68,500
49.69,508
49.7,503
49.71,505
49.72,505
49.73,499
49.74,493
49.75,489
49.76,581
49.77,705
49.78,658
49.79,501
49.8,427
49.81,443
49.82,467
49.83,475
49.84,496
49.85,502
49.86,504
49.87,513
49.88,510
49.89,517
49.9,519
49.91,521
49.92,529
49.93,531
49.94,539
49.95,549
49.96,556
49.97,565
49.98,567
49.99,565
50,559
50.01,544
50.02,526
50.03,499
50.04,472
50.05,458
50.06,445
50.07,445
50.08,442
50.09,446
50.1,448
50.11,456
50.12,464
50.13,471
50.14,471
50.15,478
50.16,483
50.17,481
50.18,487
50.19,490
50.2,489
50.21,490
50.22,496
50.23,496
50.24,493
50.25,499
50.26,505
50.27,492
50.28,501
50.29,503
50.3,504
50.31,504
50.32,502
50.33,505
50.34,508
50.35,503
50.36,506
50.37,499
50.38,512
50.39,511
50.4,512
50.41,513
50.42,507
50.43,511
50.44,516
50.45,515
50.46,531
50.47,531
50.48,524
50.49,502
50.5,502
50.51,497
50.52,500
50.53,506
50.54,496
50.55,507
50.56,504
50.57,487
50.58,489
50.59,570
50.6,708
50.61,702
50.62,535
50.63,431
50.64,420
50.65,448
50.66,466
50.67,485
50.68,496
50.69,497
50.7,503
50.71,507
50.72,514
50.73,521
50.74,524
50.75,529
50.76,523
50.77,532
50.78,545
50.79,556
50.8,572
50.81,562
50.82,574
50.83,559
50.84,548
50.85,531
50.86,499
50.87,475
50.88,451
50.89,440
50.9,435
50.91,416
50.92,432
50.93,441
50.94,454
50.95,447
50.96,459
50.97,468
50.98,464
50.99,470
51,478
51.01,478
51.02,486
51.03,483
51.04,488
51.05,486
51.06,492
51.07,487
51.08,496
51.09,487
51.1,500
51.11,494
51.12,495
51.13,496
51.14,504
51.15,502
51.16,497
51.17,500
51.18,491
51.19,498
51.2,499
51.21,506
51.22,504
51.23,506
51.24,506
51.25,512
51.26,512
51.27,519
51.28,509
51.29,489
51.3,496
51.31,494
51.32,496
51.33,489
51.34,487
51.35,497
51.36,495
51.37,480
51.38,512
51.39,617
51.4,703
51.41,635
51.42,467
51.43,411
51.44,426
51.45,444
51.46,468
51.47,488
51.48,496
51.49,493
51.5,506
51.51,503
51.52,517
51.53,505
51.54,516
51.55,514
51.56,529
51.57,537
51.58,551
51.59,551
51.6,571
51.61,566
51.62,564
51.63,550
51.64,542
51.65,515
51.66,484
51.67,462
51.68,445
51.69,440
51.7,440
51.71,440
51.72,449
51.73,428
51.74,465
51.75,462
51.76,449
51.77,474
51.78,472
51.79,491
51.8,490
51.81,491
51.82,502
51.83,494
51.84,501
51.85,488
51.86,499
51.87,494
51.88,499
51.89,508
51.9,498
51.91,495
51.92,493
51.93,501
51.94,508
51.95,503
51.96,520
51.97,527
51.98,513
51.99,516
52,510
52.01,531
52.02,520
52.03,509
52.04,506
52.05,519
52.06,522
52.07,512
52.08,494
52.09,495
52.1,499
52.11,513
52.12,496
52.13,524
52.14,615
52.15,707
52.16,592
52.17,480
52.18,440
52.19,462
52.2,504
52.21,491
52.22,481
52.23,507
52.24,511
52.25,535
52.26,510
52.27,541
52.28,535
52.29,529
52.3,544
52.31,545
52.32,560
52.33,553
52.34,553
52.35,591
52.36,551
52.37,580
52.38,539
52.39,527
52.4,498
52.41,491
52.42,463
52.43,468
52.44,457
52.45,453
52.46,455
52.47,461
52.48,448
52.49,472
52.5,455
52.51,464
52.52,500
52.53,496
52.54,488
52.55,460
52.56,509
52.57,495
52.58,507
52.59,503
52.6,511
52.61,512
52.62,504
52.63,504
52.64,487
52.65,546
52.66,531
52.67,541
52.68,500
52.69,505
52.7,509
52.71,533
52.72,514
52.73,505
52.74,493
52.75,496
52.76,515
52.77,490
52.78,505
52.79,512
52.8,509
52.81,489
52.82,515
52.83,609
52.84,675
52.85,560
52.86,475
52.87,434
52.88,459
52.89,488
52.9,490
52.91,497
52.92,524
52.93,502
52.94,534
52.95,495
52.96,543
52.97,512
52.98,512
52.99,531
53,545
53.01,538
53.02,561
53.03,570
53.04,575
53.05,571
53.06,551
53.07,551
53.08,516
53.09,496
53.1,465
53.11,455
53.12,479
53.13,439
53.14,463
53.15,455
53.16,456
53.17,468
53.18,482
53.19,461
53.2,479
53.21,499
53.22,485
53.23,499
53.24,496
53.25,496
53.26,496
53.27,503
53.28,504
53.29,516
53.3,487
53.31,513
53.32,515
53.33,496
53.34,513
53.35,512
53.36,503
53.37,507
53.38,502
53.39,493
53.4,515
53.41,505
53.42,501
53.43,509
53.44,487
53.45,541
53.46,508
53.47,512
53.48,503
53.49,500
53.5,503
53.51,522
53.52,485
53.53,506
53.54,499
53.55,480
53.56,496
53.57,502
53.58,605
53.59,713
53.6,607
53.61,474
53.62,409
53.63,470
53.64,491
53.65,468
53.66,508
53.67,497
53.68,506
53.69,513
53.7,531
53.71,504
53.72,504
53.73,535
53.74,521
53.75,539
53.76,527
53.77,543
53.78,534
53.79,568
53.8,560
53.81,560
53.82,553
53.83,519
53.84,510
53.85,493
53.86,476
53.87,479
53.88,458
53.89,449
53.9,472
53.91,459
53.92,472
53.93,480
53.94,487
53.95,474
53.96,474
53.97,480
53.98,499
53.99,490
54,500
54.01,505
54.02,510
54.03,487
54.04,504
54.05,484
54.06,498
54.07,516
54.08,492
54.09,521
54.1,489
54.11,497
54.12,508
54.13,513
54.14,486
54.15,521
54.16,503
54.17,500
54.18,507
54.19,523
54.2,526
54.21,512
54.22,524
54.23,514
54.24,513
54.25,493
54.26,496
54.27,530
54.28,505
54.29,513
54.3,486
54.31,495
54.32,522
54.33,498
54.34,489
54.35,523
54.36,649
54.37,666
54.38,529
54.39,454
54.4,441
54.41,443
54.42,460
54.43,500
54.44,511
54.45,506
54.46,519
54.47,509
54.48,514
54.49,516
54.5,510
54.51,534
54.52,517
54.53,529
54.54,530
54.55,542
54.56,548
54.57,551
54.58,546
54.59,546
54.6,522
54.61,541
54.62,489
54.63,472
54.64,468
54.65,468
54.66,452
54.67,457
54.68,451
54.69,462
54.7,474
54.71,487
54.72,476
54.73,476
54.74,488
54.75,486
54.76,487
54.77,503
54.78,481
54.79,512
54.8,483
54.81,494
54.82,484
54.83,505
54.84,494
54.85,506
54.86,509
54.87,497
54.88,508
54.89,485
54.9,487
54.91,500
54.92,505
54.93,499
54.94,495
54.95,515
54.96,499
54.97,503
54.98,512
54.99,515
55,524
55.01,504
55.02,519
55.03,519
55.04,508
55.05,508
55.06,508
55.07,500
55.08,508
55.09,504
55.1,506
55.11,497
55.12,494
55.13,489
55.14,491
55.15,556
55.16,680
55.17,629
55.18,519
55.19,451
55.2,444
55.21,467
55.22,480
55.23,493
55.24,497
55.25,517
55.26,510
55.27,531
55.28,503
55.29,518
55.3,528
55.31,520
55.32,531
55.33,540
55.34,542
55.35,558
55.36,554
55.37,558
55.38,563
55.39,541
55.4,536
55.41,510
55.42,487
55.43,474
55.44,467
55.45,456
55.46,453
55.47,460
55.48,451
55.49,461
55.5,472
55.51,466
55.52,475
55.53,486
55.54,478
55.55,495
55.56,487
55.57,493
55.58,503
55.59,494
55.6,492
55.61,499
55.62,497
55.63,503
55.64,502
55.65,500
55.66,503
55.67,501
55.68,499
55.69,499
55.7,499
55.71,503
55.72,505
55.73,505
55.74,505
55.75,509
55.76,504
55.77,498
55.78,505
55.79,504
55.8,508
55.81,503
55.82,512
55.83,505
55.84,508
55.85,513
55.86,509
55.87,515
55.88,506
55.89,516
55.9,518
55.91,521
55.92,519
55.93,512
55.94,496
55.95,506
55.96,499
55.97,497
55.98,501
55.99,499
56,499
56.01,492
56.02,483
56.03,490
56.04,604
56.05,739
56.06,664
56.07,500
56.08,421
56.09,429
56.1,453
56.11,465
56.12,479
56.13,502
56.14,498
56.15,510
56.16,513
56.17,511
56.18,521
56.19,522
56.2,524
56.21,529
56.22,531
56.23,551
56.24,561
56.25,569
56.26,568
56.27,569
56.28,558
56.29,540
56.3,516
56.31,495
56.32,468
56.33,456
56.34,444
56.35,442
56.36,449
56.37,448
56.38,451
56.39,458
56.4,462
56.41,455
56.42,482
56.43,480
56.44,484
56.45,484
56.46,475
56.47,479
56.48,496
56.49,480
56.5,508
56.51,500
56.52,503
56.53,498
56.54,474
56.55,471
56.56,489
56.57,527
56.58,512
56.59,537
56.6,526
56.61,517
56.62,493
56.63,502
56.64,495
56.65,471
56.66,524
56.67,510
56.68,556
56.69,529
56.7,540
56.71,513
56.72,487
56.73,515
56.74,508
56.75,496
56.76,507
56.77,501
56.78,547
56.79,526
56.8,527
56.81,525
56.82,506
56.83,474
56.84,523
56.85,518
56.86,494
56.87,496
56.88,507
56.89,512
56.9,506
56.91,494
56.92,515
56.93,625
56.94,726
56.95,636
56.96,432
56.97,411
56.98,452
56.99,459
57,479
57.01,494
57.02,485
57.03,493
57.04,509
57.05,514
57.06,507
57.07,516
57.08,534
57.09,497
57.1,513
57.11,548
57.12,550
57.13,559
57.14,583
57.15,564
57.16,555
57.17,565
57.18,538
57.19,485
57.2,489
57.21,462
57.22,463
57.23,432
57.24,412
57.25,449
57.26,433
57.27,440
57.28,474
57.29,472
57.3,451
57.31,467
57.32,454
57.33,479
57.34,472
57.35,484
57.36,487
57.37,486
57.38,488
57.39,513
57.4,512
57.41,503
57.42,480
57.43,499
57.44,509
57.45,496
57.46,488
57.47,503
57.48,520
57.49,509
57.5,490
57.51,491
57.52,491
57.53,515
57.54,503
57.55,512
57.56,500
57.57,501
57.58,524
57.59,514
57.6,504
57.61,519
57.62,516
57.63,507
57.64,511
57.65,490
57.66,518
57.67,508
57.68,508
57.69,532
57.7,526
57.71,527
57.72,512
57.73,500
57.74,501
57.75,493
57.76,487
57.77,512
57.78,500
57.79,495
57.8,519
57.81,493
57.82,473
57.83,529
57.84,646
57.85,664
57.86,577
57.87,470
57.88,427
57.89,452
57.9,463
57.91,475
57.92,510
57.93,497
57.94,492
57.95,507
57.96,501
57.97,534
57.98,509
57.99,522
58,545
58.01,524
58.02,531
58.03,560
58.04,559
58.05,572
58.06,568
58.07,565
58.08,516
58.09,557
58.1,474
58.11,465
58.12,463
58.13,460
58.14,428
58.15,444
58.16,438
58.17,468
58.18,442
58.19,455
58.2,475
58.21,460
58.22,478
58.23,476
58.24,475
58.25,499
58.26,473
58.27,466
58.28,492
58.29,515
58.3,497
58.31,495
58.32,521
58.33,479
58.34,504
58.35,493
58.36,485
58.37,498
58.38,528
58.39,511
58.4,502
58.41,519
58.42,480
58.43,508
58.44,516
58.45,520
58.46,519
58.47,515
58.48,512
58.49,497
58.5,518
58.51,515
58.52,491
58.53,519
58.54,523
58.55,486
58.56,515
58.57,534
58.58,521
58.59,539
58.6,525
58.61,521
58.62,512
58.63,481
58.64,533
58.65,532
58.66,513
58.67,503
58.68,514
58.69,513
58.7,521
58.71,508
58.72,505
58.73,514
58.74,515
58.75,503
58.76,498
58.77,569
58.78,691
58.79,673
58.8,551
58.81,450
58.82,422
58.83,477
58.84,454
58.85,492
58.86,505
58.87,495
58.88,529
58.89,498
58.9,515
58.91,516
58.92,520
58.93,521
58.94,531
58.95,559
58.96,529
58.97,560
58.98,569
58.99,560
59,570
59.01,563
59.02,550
59.03,536
59.04,508
59.05,493
59.06,470
59.07,467
59.08,435
59.09,440
59.1,451
59.11,454
59.12,460
59.13,449
59.14,464
59.15,467
59.16,488
59.17,491
59.18,479
59.19,487
59.2,494
59.21,476
59.22,488
59.23,493
59.24,502
59.25,499
59.26,490
59.27,496
59.28,501
59.29,509
59.3,499
59.31,504
59.32,515
59.33,517
59.34,501
59.35,507
59.36,515
59.37,504
59.38,505
59.39,505
59.4,514
59.41,520
59.42,519
59.43,510
59.44,512
59.45,511
59.46,514
59.47,510
59.48,513
59.49,508
59.5,517
59.51,512
59.52,509
59.53,506
59.54,516
59.55,517
59.56,521
59.57,511
59.58,529
59.59,514
59.6,517
59.61,504
59.62,497
59.63,507
59.64,496
59.65,507
59.66,500
59.67,501
59.68,501
59.69,492
59.7,484
59.71,569
59.72,703
59.73,679
59.74,540
59.75,431
59.76,435
59.77,452
59.78,466
59.79,489
59.8,492
59.81,500
59.82,499
59.83,505
59.84,513
59.85,521
59.86,519
59.87,516
59.88,527
59.89,532
59.9,540
59.91,549
59.92,564
59.93,577
59.94,566
59.95,554
59.96,553
59.97,528
59.98,507
59.99,482
60,463
60.01,443
60.02,449
60.03,438
60.04,432
60.05,447
60.06,460
60.07,461
60.08,466
60.09,474
60.1,476
60.11,481
60.12,487
60.13,482
60.14,480
60.15,486
60.16,502
60.17,497
60.18,490
60.19,499
60.2,509
60.21,500
60.22,495
60.23,505
60.24,509
60.25,501
60.26,508
60.27,509
60.28,505
60.29,506
60.3,511
60.31,510
60.32,512
60.33,507
60.34,510
60.35,511
60.36,505
60.37,509
60.38,505
60.39,512
60.4,497
60.41,504
60.42,510
60.43,514
60.44,510
60.45,508
60.46,507
60.47,508
60.48,508
60.49,503
60.5,508
60.51,516
60.52,516
60.53,509
60.54,518
60.55,523
60.56,516
60.57,510
60.58,498
60.59,496
60.6,493
60.61,499
60.62,502
60.63,497
60.64,496
60.65,491
60.66,482
60.67,546
60.68,685
60.69,679
60.7,545
60.71,434
60.72,418
60.73,448
60.74,462
60.75,482
60.76,488
60.77,487
60.78,499
60.79,502
60.8,502
60.81,508
60.82,512
60.83,522
60.84,517
60.85,531
60.86,539
60.87,540
60.88,554
60.89,559
60.9,564
60.91,559
60.92,548
60.93,529
60.94,503
60.95,477
60.96,455
60.97,445
60.98,432
60.99,433
61,443
61.01,440
61.02,452
61.03,452
61.04,457
61.05,463
61.06,464
61.07,471
61.08,480
61.09,479
61.1,483
61.11,486
61.12,488
61.13,489
61.14,490
61.15,493
61.16,495
61.17,498
61.18,499
61.19,499
61.2,504
61.21,502
61.22,503
61.23,505
61.24,503
61.25,505
61.26,507
61.27,507
61.28,511
61.29,504
61.3,511
61.31,511
61.32,510
61.33,510
61.34,511
61.35,507
61.36,510
61.37,511
61.38,515
61.39,507
61.4,510
61.41,510
61.42,505
61.43,511
61.44,513
61.45,512
61.46,515
61.47,517
61.48,517
61.49,515
61.5,526
61.51,526
61.52,527
61.53,508
61.54,509
61.55,500
61.56,502
61.57,503
61.58,506
61.59,502
61.6,504
61.61,484
61.62,502
61.63,612
61.64,730
61.65,652
61.66,495
61.67,424
61.68,439
61.69,457
61.7,478
61.71,494
61.72,497
61.73,505
61.74,511
61.75,512
61.76,514
61.77,517
61.78,523
61.79,529
61.8,540
61.81,544
61.82,551
61.83,559
61.84,565
61.85,574
61.86,573
61.87,568
61.88,558
61.89,528
61.9,497
61.91,472
61.92,458
61.93,446
61.94,445
61.95,436
61.96,448
61.97,458
61.98,452
61.99,454
62,460
62.01,471
62.02,480
62.03,477
62.04,486
62.05,493
62.06,479
62.07,498
62.08,507
62.09,483
62.1,494
62.11,496
62.12,499
62.13,500
62.14,502
62.15,506
62.16,512
62.17,505
62.18,511
62.19,503
62.2,508
62.21,511
62.22,507
62.23,508
62.24,512
62.25,514
62.26,508
62.27,517
62.28,510
62.29,508
62.3,511
62.31,514
62.32,512
62.33,515
62.34,512
62.35,505
62.36,511
62.37,513
62.38,511
62.39,513
62.4,516
62.41,514
62.42,511
62.43,524
62.44,517
62.45,529
62.46,509
62.47,499
62.48,510
62.49,495
62.5,500
62.51,505
62.52,500
62.53,505
62.54,492
62.55,487
62.56,575
62.57,691
62.58,675
62.59,536
62.6,430
62.61,425
62.62,451
62.63,464
62.64,483
62.65,503
62.66,504
62.67,500
62.68,515
62.69,504
62.7,527
62.71,504
62.72,516
62.73,537
62.74,537
62.75,536
62.76,558
62.77,561
62.78,560
62.79,577
62.8,562
62.81,547
62.82,533
62.83,509
62.84,480
62.85,460
62.86,444
62.87,444
62.88,438
62.89,442
62.9,448
62.91,458
62.92,459
62.93,465
62.94,470
62.95,481
62.96,486
62.97,483
62.98,491
62.99,482
63,495
63.01,494
63.02,488
63.03,527
63.04,498
63.05,497
63.06,495
63.07,506
63.08,499
63.09,493
63.1,513
63.11,492
63.12,517
63.13,488
63.14,513
63.15,541
63.16,490
63.17,502
63.18,507
63.19,506
63.2,508
63.21,513
63.22,509
63.23,506
63.24,505
63.25,512
63.26,514
63.27,510
63.28,507
63.29,513
63.3,514
63.31,514
63.32,513
63.33,516
63.34,523
63.35,528
63.36,519
63.37,500
63.38,500
63.39,503
63.4,503
63.41,501
63.42,503
63.43,507
63.44,499
63.45,483
63.46,499
63.47,610
63.48,712
63.49,622
63.5,492
63.51,418
63.52,441
63.53,457
63.54,476
63.55,503
63.56,498
63.57,505
63.58,508
63.59,514
63.6,510
63.61,515
63.62,520
63.63,522
63.64,529
63.65,536
63.66,549
63.67,553
63.68,565
63.69,569
63.7,567
63.71,560
63.72,546
63.73,525
63.74,497
63.75,473
63.76,454
63.77,454
63.78,438
63.79,444
63.8,446
63.81,452
63.82,457
63.83,470
63.84,463
63.85,476
63.86,478
63.87,478
63.88,489
63.89,487
63.9,493
63.91,492
63.92,491
63.93,494
63.94,495
63.95,497
63.96,500
63.97,498
63.98,500
63.99,499
64,502
64.01,500
64.02,504
64.03,507
64.04,528
64.05,512
64.06,494
64.07,497
64.08,513
64.09,505
64.1,506
64.11,506
64.12,519
64.13,514
64.14,500
64.15,514
64.16,507
64.17,505
64.18,513
64.19,508
64.2,522
64.21,508
64.22,514
64.23,519
64.24,523
64.25,524
64.26,521
64.27,504
64.28,507
64.29,492
64.3,502
64.31,513
64.32,496
64.33,497
64.34,499
64.35,482
64.36,500
64.37,611
64.38,712
64.39,604
64.4,477
64.41,421
64.42,440
64.43,450
64.44,480
64.45,494
64.46,491
64.47,499
64.48,501
64.49,513
64.5,511
64.51,518
64.52,524
64.53,526
64.54,540
64.55,537
64.56,544
64.57,563
64.58,552
64.59,564
64.6,567
64.61,557
64.62,543
64.63,510
64.64,489
64.65,480
64.66,446
64.67,448
64.68,448
64.69,440
64.7,448
64.71,457
64.72,456
64.73,469
64.74,467
64.75,472
64.76,485
64.77,475
64.78,478
64.79,487
64.8,491
64.81,494
64.82,491
64.83,496
64.84,502
64.85,496
64.86,497
64.87,490
64.88,495
64.89,504
64.9,505
64.91,498
64.92,500
64.93,501
64.94,509
64.95,501
64.96,512
64.97,506
64.98,515
64.99,489
65,503
65.01,507
65.02,506
65.03,510
65.04,501
65.05,511
65.06,523
65.07,510
65.08,497
65.09,511
65.1,528
65.11,494
65.12,506
65.13,533
65.14,531
65.15,516
65.16,504
65.17,503
65.18,499
65.19,519
65.2,493
65.21,493
65.22,513
65.23,498
65.24,473
65.25,489
65.26,541
65.27,666
65.28,673
65.29,552
65.3,437
65.31,448
65.32,452
65.33,472
65.34,482
65.35,500
65.36,496
65.37,514
65.38,501
65.39,503
65.4,522
65.41,519
65.42,522
65.43,531
65.44,536
65.45,551
65.46,535
65.47,560
65.48,567
65.49,569
65.5,566
65.51,553
65.52,530
65.53,499
65.54,487
65.55,462
65.56,445
65.57,440
65.58,442
65.59,443
65.6,460
65.61,448
65.62,449
65.63,475
65.64,520
65.65,444
65.66,476
65.67,496
65.68,497
65.69,456
65.7,505
65.71,511
65.72,529
65.73,446
65.74,515
65.75,441
65.76,474
65.77,503
65.78,494
65.79,487
65.8,503
65.81,516
65.82,513
65.83,498
65.84,502
65.85,503
65.86,507
65.87,525
65.88,491
65.89,507
65.9,514
65.91,496
65.92,512
65.93,511
65.94,521
65.95,511
65.96,525
65.97,504
65.98,515
65.99,526
66,515
66.01,505
66.02,536
66.03,543
66.04,519
66.05,510
66.06,511
66.07,502
66.08,495
66.09,492
66.1,503
66.11,498
66.12,501
66.13,494
66.14,527
66.15,625
66.16,685
66.17,572
66.18,459
66.19,426
66.2,448
66.21,463
66.22,480
66.23,492
66.24,499
66.25,505
66.26,508
66.27,507
66.28,519
66.29,524
66.3,510
66.31,539
66.32,524
66.33,528
66.34,557
66.35,555
66.36,558
66.37,563
66.38,563
66.39,558
66.4,539
66.41,517
66.42,487
66.43,475
66.44,441
66.45,446
66.46,446
66.47,444
66.48,462
66.49,467
66.5,455
66.51,465
66.52,477
66.53,460
66.54,495
66.55,470
66.56,492
66.57,507
66.58,493
66.59,488
66.6,503
66.61,487
66.62,499
66.63,498
66.64,475
66.65,483
66.66,528
66.67,498
66.68,509
66.69,507
66.7,530
66.71,493
66.72,509
66.73,519
66.74,500
66.75,493
66.76,506
66.77,508
66.78,513
66.79,515
66.8,518
66.81,514
66.82,510
66.83,523
66.84,500
66.85,528
66.86,536
66.87,490
66.88,518
66.89,520
66.9,527
66.91,528
66.92,531
66.93,504
66.94,501
66.95,505
66.96,504
66.97,504
66.98,508
66.99,504
67,508
67.01,494
67.02,487
67.03,541
67.04,657
67.05,695
67.06,573
67.07,454
67.08,417
67.09,448
67.1,459
67.11,487
67.12,490
67.13,504
67.14,501
67.15,506
67.16,515
67.17,516
67.18,515
67.19,517
67.2,537
67.21,540
67.22,534
67.23,552
67.24,566
67.25,575
67.26,573
67.27,568
67.28,554
67.29,536
67.3,513
67.31,483
67.32,463
67.33,451
67.34,441
67.35,437
67.36,439
67.37,442
67.38,443
67.39,459
67.4,463
67.41,461
67.42,471
67.43,485
67.44,482
67.45,484
67.46,483
67.47,493
67.48,492
67.49,497
67.5,495
67.51,496
67.52,496
67.53,497
67.54,498
67.55,507
67.56,503
67.57,501
67.58,505
67.59,495
67.6,507
67.61,508
67.62,508
67.63,506
67.64,512
67.65,511
67.66,511
67.67,506
67.68,509
67.69,504
67.7,514
67.71,510
67.72,509
67.73,514
67.74,513
67.75,510
67.76,516
67.77,510
67.78,523
67.79,524
67.8,528
67.81,511
67.82,504
67.83,506
67.84,496
67.85,498
67.86,501
67.87,496
67.88,507
67.89,498
67.9,478
67.91,525
67.92,664
67.93,695
67.94,570
67.95,454
67.96,431
67.97,446
67.98,457
67.99,481
68,497
68.01,501
68.02,504
68.03,502
68.04,517
68.05,519
68.06,523
68.07,524
68.08,528
68.09,534
68.1,548
68.11,558
68.12,561
68.13,573
68.14,569
68.15,566
68.16,554
68.17,536
68.18,513
68.19,482
68.2,463
68.21,447
68.22,434
68.23,448
68.24,443
68.25,438
68.26,451
68.27,456
68.28,474
68.29,472
68.3,473
68.31,476
68.32,474
68.33,486
68.34,494
68.35,491
68.36,496
68.37,496
68.38,501
68.39,493
68.4,504
68.41,506
68.42,502
68.43,504
68.44,505
68.45,503
68.46,503
68.47,503
68.48,506
68.49,507
68.5,505
68.51,505
68.52,505
68.53,506
68.54,498
68.55,508
68.56,512
68.57,500
68.58,511
68.59,517
68.6,511
68.61,511
68.62,523
68.63,527
68.64,515
68.65,502
68.66,504
68.67,505
68.68,497
68.69,489
68.7,502
68.71,504
68.72,501
68.73,486
68.74,492
68.75,589
68.76,707
68.77,630
68.78,495
68.79,419
68.8,436
68.81,466
68.82,484
68.83,510
68.84,496
68.85,506
68.86,513
68.87,517
68.88,519
68.89,512
68.9,526
68.91,531
68.92,535
68.93,536
68.94,547
68.95,552
68.96,553
68.97,574
68.98,570
68.99,556
69,542
69.01,526
69.02,495
69.03,476
69.04,455
69.05,451
69.06,445
69.07,446
69.08,448
69.09,452
69.1,456
69.11,465
69.12,463
69.13,474
69.14,479
69.15,484
69.16,488
69.17,488
69.18,495
69.19,489
69.2,499
69.21,500
69.22,491
69.23,495
69.24,502
69.25,491
69.26,504
69.27,504
69.28,499
69.29,501
69.3,499
69.31,503
69.32,505
69.33,508
69.34,509
69.35,512
69.36,504
69.37,510
69.38,507
69.39,508
69.4,504
69.41,508
69.42,511
69.43,504
69.44,505
69.45,515
69.46,515
69.47,514
69.48,515
69.49,529
69.5,528
69.51,503
69.52,498
69.53,499
69.54,505
69.55,499
69.56,502
69.57,503
69.58,505
69.59,489
69.6,491
69.61,570
69.62,697
69.63,658
69.64,519
69.65,427
69.66,435
69.67,454
69.68,476
69.69,491
69.7,493
69.71,495
69.72,513
69.73,504
69.74,519
69.75,523
69.76,519
69.77,524
69.78,532
69.79,534
69.8,549
69.81,557
69.82,551
69.83,550
69.84,575
69.85,569
69.86,558
69.87,529
69.88,500
69.89,477
69.9,443
69.91,444
69.92,455
69.93,443
69.94,468
69.95,448
69.96,454
69.97,460
69.98,457
69.99,454
70,483
70.01,467
70.02,492
70.03,508
70.04,484
70.05,511
70.06,479
70.07,491
70.08,480
70.09,489
70.1,492
70.11,508
70.12,512
70.13,503
70.14,502
70.15,515
70.16,520
70.17,498
70.18,500
70.19,495
70.2,496
70.21,508
70.22,504
70.23,503
70.24,510
70.25,510
70.26,513
70.27,508
70.28,535
70.29,493
70.3,504
70.31,500
70.32,525
70.33,517
70.34,528
70.35,514
70.36,508
70.37,503
70.38,547
70.39,512
70.4,495
70.41,489
70.42,512
70.43,487
70.44,515
70.45,509
70.46,500
70.47,498
70.48,472
70.49,519
70.5,666
70.51,682
70.52,561
70.53,444
70.54,413
70.55,448
70.56,469
70.57,488
70.58,486
70.59,502
70.6,522
70.61,495
70.62,520
70.63,510
70.64,513
70.65,530
70.66,532
70.67,537
70.68,541
70.69,547
70.7,566
70.71,562
70.72,567
70.73,568
70.74,556
70.75,547
70.76,490
70.77,488
70.78,501
70.79,444
70.8,437
70.81,442
70.82,443
70.83,449
70.84,465
70.85,450
70.86,474
70.87,448
70.88,452
70.89,479
70.9,499
70.91,491
70.92,469
70.93,504
70.94,500
70.95,490
70.96,501
70.97,475
70.98,488
70.99,520
71,516
71.01,471
71.02,493
71.03,511
71.04,513
71.05,497
71.06,504
71.07,523
71.08,498
71.09,492
71.1,512
71.11,514
71.12,505
71.13,515
71.14,518
71.15,494
71.16,513
71.17,518
71.18,501
71.19,507
71.2,537
71.21,523
71.22,518
71.23,519
71.24,516
71.25,504
71.26,520
71.27,523
71.28,508
71.29,510
71.3,487
71.31,514
71.32,495
71.33,490
71.34,510
71.35,499
71.36,483
71.37,548
71.38,679
71.39,683
71.4,546
71.41,431
71.42,427
71.43,455
71.44,487
71.45,481
71.46,499
71.47,483
71.48,497
71.49,509
71.5,508
71.51,519
71.52,521
71.53,527
71.54,543
71.55,568
71.56,533
71.57,545
71.58,574
71.59,571
71.6,592
71.61,553
71.62,590
71.63,517
71.64,524
71.65,468
71.66,460
71.67,450
71.68,455
71.69,431
71.7,444
71.71,443
71.72,449
71.73,452
71.74,451
71.75,481
71.76,477
71.77,468
71.78,486
71.79,492
71.8,496
71.81,491
71.82,510
71.83,477
71.84,492
71.85,495
71.86,495
71.87,501
71.88,508
71.89,505
71.9,496
71.91,499
71.92,505
71.93,521
71.94,505
71.95,496
71.96,500
71.97,511
71.98,499
71.99,507
72,509
72.01,505
72.02,501
72.03,509
72.04,513
72.05,517
72.06,508
72.07,499
72.08,517
72.09,508
72.1,512
72.11,504
72.12,518
72.13,521
72.14,523
72.15,524
72.16,507
72.17,505
72.18,496
72.19,492
72.2,504
72.21,507
72.22,499
72.23,501
72.24,482
72.25,497
72.26,604
72.27,732
72.28,631
72.29,486
72.3,417
72.31,441
72.32,458
72.33,471
72.34,495
72.35,505
72.36,502
72.37,507
72.38,511
72.39,513
72.4,523
72.41,517
72.42,534
72.43,536
72.44,539
72.45,545
72.46,564
72.47,571
72.48,566
72.49,571
72.5,566
72.51,547
72.52,519
72.53,491
72.54,467
72.55,452
72.56,437
72.57,442
72.58,445
72.59,440
72.6,451
72.61,452
72.62,458
72.63,466
72.64,473
72.65,466
72.66,484
72.67,482
72.68,490
72.69,489
72.7,496
72.71,492
72.72,494
72.73,500
72.74,497
72.75,501
72.76,497
72.77,502
72.78,505
72.79,502
72.8,501
72.81,510
72.82,499
72.83,507
72.84,500
72.85,508
72.86,499
72.87,508
72.88,509
72.89,506
72.9,514
72.91,515
72.92,512
72.93,510
72.94,508
72.95,513
72.96,508
72.97,514
72.98,526
72.99,524
73,527
73.01,522
73.02,503
73.03,497
73.04,502
73.05,500
73.06,500
73.07,512
73.08,497
73.09,499
73.1,487
73.11,489
73.12,578
73.13,707
73.14,665
73.15,512
73.16,429
73.17,428
73.18,460
73.19,467
73.2,490
73.21,500
73.22,502
73.23,511
73.24,510
73.25,518
73.26,515
73.27,521
73.28,529
73.29,533
73.3,538
73.31,544
73.32,551
73.33,567
73.34,574
73.35,570
73.36,560
73.37,547
73.38,525
73.39,504
73.4,480
73.41,456
73.42,447
73.43,448
73.44,441
73.45,444
73.46,451
73.47,452
73.48,459
73.49,463
73.5,472
73.51,477
73.52,480
73.53,481
73.54,484
73.55,488
73.56,487
73.57,493
73.58,491
73.59,499
73.6,502
73.61,500
73.62,497
73.63,497
73.64,504
73.65,505
73.66,499
73.67,505
73.68,504
73.69,507
73.7,504
73.71,507
73.72,506
73.73,509
73.74,503
73.75,510
73.76,512
73.77,507
73.78,510
73.79,508
73.8,510
73.81,508
73.82,510
73.83,515
73.84,514
73.85,519
73.86,513
73.87,527
73.88,525
73.89,526
73.9,514
73.91,499
73.92,499
73.93,502
73.94,503
73.95,504
73.96,503
73.97,504
73.98,492
73.99,491
74,553
74.01,662
74.02,679
74.03,559
74.04,456
74.05,427
74.06,452
74.07,462
74.08,487
74.09,497
74.1,501
74.11,505
74.12,508
74.13,512
74.14,512
74.15,519
74.16,522
74.17,528
74.18,530
74.19,543
74.2,552
74.21,557
74.22,560
74.23,572
74.24,553
74.25,560
74.26,538
74.27,512
74.28,482
74.29,462
74.3,448
74.31,444
74.32,441
74.33,441
74.34,449
74.35,451
74.36,458
74.37,467
74.38,461
74.39,474
74.4,478
74.41,483
74.42,487
74.43,491
74.44,491
74.45,490
74.46,485
74.47,499
74.48,497
74.49,500
74.5,503
74.51,503
74.52,503
74.53,503
74.54,505
74.55,510
74.56,508
74.57,504
74.58,499
74.59,499
74.6,512
74.61,511
74.62,511
74.63,507
74.64,508
74.65,510
74.66,513
74.67,514
74.68,519
74.69,509
74.7,518
74.71,526
74.72,526
74.73,514
74.74,499
74.75,504
74.76,503
74.77,502
74.78,507
74.79,496
74.8,499
74.81,499
74.82,479
74.83,503
74.84,619
74.85,714
74.86,612
74.87,479
74.88,424
74.89,444
74.9,460
74.91,475
74.92,497
74.93,499
74.94,500
74.95,508
74.96,516
74.97,527
74.98,521
74.99,526
75,532
75.01,535
75.02,542
75.03,550
75.04,564
75.05,572
75.06,571
75.07,564
75.08,556
75.09,540
75.1,514
75.11,493
75.12,467
75.13,448
75.14,447
75.15,439
75.16,442
75.17,448
75.18,455
75.19,457
75.2,465
75.21,470
75.22,473
75.23,475
75.24,481
75.25,490
75.26,488
75.27,494
75.28,486
75.29,505
75.3,500
75.31,499
75.32,500
75.33,498
75.34,501
75.35,502
75.36,503
75.37,501
75.38,506
75.39,499
75.4,503
75.41,503
75.42,508
75.43,508
75.44,506
75.45,506
75.46,509
75.47,507
75.48,510
75.49,506
75.5,508
75.51,511
75.52,512
75.53,507
75.54,506
75.55,503
75.56,517
75.57,515
75.58,513
75.59,512
75.6,517
75.61,520
75.62,521
75.63,508
75.64,503
75.65,501
75.66,505
75.67,505
75.68,501
75.69,504
75.7,505
75.71,487
75.72,493
75.73,564
75.74,679
75.75,675
75.76,543
75.77,444
75.78,430
75.79,451
75.8,464
75.81,490
75.82,499
75.83,500
75.84,509
75.85,512
75.86,510
75.87,515
75.88,519
75.89,526
75.9,527
75.91,526
75.92,547
75.93,552
75.94,560
75.95,569
75.96,571
75.97,567
75.98,551
75.99,532
76,504
76.01,483
76.02,459
76.03,451
76.04,443
76.05,443
76.06,447
76.07,454
76.08,451
76.09,460
76.1,471
76.11,471
76.12,477
76.13,480
76.14,482
76.15,485
76.16,487
76.17,494
76.18,485
76.19,500
76.2,495
76.21,496
76.22,496
76.23,503
76.24,499
76.25,503
76.26,504
76.27,503
76.28,504
76.29,505
76.3,504
76.31,503
76.32,508
76.33,508
76.34,505
76.35,505
76.36,511
76.37,508
76.38,509
76.39,510
76.4,509
76.41,513
76.42,511
76.43,509
76.44,510
76.45,513
76.46,515
76.47,514
76.48,512
76.49,507
76.5,515
76.51,526
76.52,526
76.53,521
76.54,506
76.55,497
76.56,499
76.57,502
76.58,498
76.59,503
76.6,501
76.61,500
76.62,491
76.63,487
76.64,561
76.65,691
76.66,669
76.67,541
76.68,440
76.69,426
76.7,449
76.71,457
76.72,487
76.73,497
76.74,495
76.75,504
76.76,511
76.77,514
76.78,517
76.79,522
76.8,526
76.81,519
76.82,545
76.83,546
76.84,555
76.85,566
76.86,558
76.87,572
76.88,569
76.89,550
76.9,530
76.91,507
76.92,476
76.93,460
76.94,447
76.95,441
76.96,443
76.97,444
76.98,451
76.99,462
77,462
77.01,464
77.02,470
77.03,475
77.04,480
77.05,485
77.06,487
77.07,488
77.08,488
77.09,497
77.1,494
77.11,498
77.12,500
77.13,496
77.14,505
77.15,506
77.16,505
77.17,500
77.18,500
77.19,506
77.2,506
77.21,504
77.22,509
77.23,507
77.24,509
77.25,504
77.26,506
77.27,512
77.28,507
77.29,504
77.3,513
77.31,512
77.32,512
77.33,508
77.34,511
77.35,509
77.36,511
77.37,512
77.38,504
77.39,512
77.4,508
77.41,521
77.42,518
77.43,515
77.44,527
77.45,523
77.46,522
77.47,496
77.48,503
77.49,502
77.5,507
77.51,502
77.52,503
77.53,495
77.54,504
77.55,494
77.56,490
77.57,573
77.58,704
77.59,658
77.6,529
77.61,433
77.62,432
77.63,454
77.64,468
77.65,489
77.66,496
77.67,503
77.68,504
77.69,518
77.7,512
77.71,513
77.72,519
77.73,520
77.74,523
77.75,537
77.76,541
77.77,551
77.78,563
77.79,564
77.8,563
77.81,564
77.82,550
77.83,524
77.84,505
77.85,479
77.86,462
77.87,445
77.88,447
77.89,444
77.9,444
77.91,454
77.92,455
77.93,464
77.94,470
77.95,472
77.96,477
77.97,480
77.98,485
77.99,489
78,491
78.01,491
78.02,497
78.03,497
78.04,496
78.05,502
78.06,498
78.07,501
78.08,499
78.09,506
78.1,503
78.11,502
78.12,507
78.13,505
78.14,508
78.15,507
78.16,504
78.17,504
78.18,511
78.19,508
78.2,508
78.21,510
78.22,508
78.23,507
78.24,510
78.25,511
78.26,507
78.27,503
78.28,508
78.29,513
78.3,512
78.31,511
78.32,510
78.33,508
78.34,513
78.35,507
78.36,512
78.37,512
78.38,512
78.39,512
78.4,518
78.41,520
78.42,526
78.43,508
78.44,499
78.45,500
78.46,501
78.47,499
78.48,504
78.49,503
78.5,497
78.51,495
78.52,488
78.53,545
78.54,662
78.55,674
78.56,550
78.57,448
78.58,429
78.59,454
78.6,461
78.61,482
78.62,494
78.63,503
78.64,504
78.65,504
78.66,518
78.67,519
78.68,518
78.69,523
78.7,525
78.71,534
78.72,542
78.73,548
78.74,560
78.75,561
78.76,560
78.77,568
78.78,556
78.79,535
78.8,507
78.81,488
78.82,464
78.83,450
78.84,447
78.85,441
78.86,445
78.87,453
78.88,454
78.89,464
78.9,465
78.91,475
78.92,476
78.93,478
78.94,482
78.95,488
78.96,486
78.97,495
78.98,495
78.99,494
79,496
79.01,496
79.02,502
79.03,499
79.04,506
79.05,504
79.06,505
79.07,504
79.08,507
79.09,509
79.1,505
79.11,504
79.12,502
79.13,507
79.14,513
79.15,510
79.16,512
79.17,509
79.18,510
79.19,507
79.2,509
79.21,513
79.22,509
79.23,509
79.24,510
79.25,504
79.26,510
79.27,510
79.28,510
79.29,513
79.3,513
79.31,512
79.32,510
79.33,507
79.34,522
79.35,512
79.36,516
79.37,526
79.38,527
79.39,517
79.4,501
79.41,497
79.42,498
79.43,503
79.44,501
79.45,500
79.46,500
79.47,495
79.48,482
79.49,521
79.5,632
79.51,686
79.52,581
79.53,460
79.54,427
79.55,451
79.56,461
79.57,478
79.58,492
79.59,504
79.6,504
79.61,508
79.62,512
79.63,510
79.64,517
79.65,519
79.66,526
79.67,529
79.68,539
79.69,546
79.7,555
79.71,561
79.72,569
79.73,561
79.74,561
79.75,537
79.76,516
79.77,492
79.78,467
79.79,457
79.8,448
79.81,444
79.82,448
79.83,446
79.84,454
79.85,459
79.86,464
79.87,467
79.88,472
79.89,481
79.9,484
79.91,485
79.92,490
79.93,492
79.94,494
79.95,498
79.96,498
79.97,504
79.98,498
79.99,502
80,504
80.01,503
80.02,502
80.03,502
80.04,505
80.05,503
80.06,499
80.07,505
80.08,509
80.09,507
80.1,503
80.11,511
80.12,510
80.13,508
80.14,505
80.15,502
80.16,512
80.17,509
80.18,510
80.19,513
80.2,508
80.21,512
80.22,506
80.23,515
80.24,510
80.25,512
80.26,510
80.27,511
80.28,510
80.29,513
80.3,511
80.31,520
80.32,523
80.33,523
80.34,514
80.35,500
80.36,503
80.37,503
80.38,502
80.39,500
80.4,503
80.41,502
80.42,496
80.43,481
80.44,548
80.45,666
80.46,676
80.47,555
80.48,441
80.49,423
80.5,453
80.51,465
80.52,483
80.53,487
80.54,495
80.55,508
80.56,515
80.57,516
80.58,516
80.59,521
80.6,526
80.61,528
80.62,534
80.63,543
80.64,549
80.65,564
80.66,565
80.67,569
80.68,564
80.69,552
80.7,534
80.71,512
80.72,488
80.73,464
80.74,449
80.75,446
80.76,444
80.77,446
80.78,448
80.79,455
80.8,456
80.81,463
80.82,470
80.83,473
80.84,479
80.85,477
80.86,482
80.87,492
80.88,490
80.89,494
80.9,492
80.91,497
80.92,499
80.93,496
80.94,496
80.95,502
80.96,504
80.97,502
80.98,503
80.99,504
81,500
81.01,508
81.02,507
81.03,504
81.04,503
81.05,509
81.06,508
81.07,502
81.08,502
81.09,512
81.1,512
81.11,510
81.12,512
81.13,512
81.14,506
81.15,513
81.16,509
81.17,515
81.18,508
81.19,509
81.2,508
81.21,519
81.22,513
81.23,514
81.24,515
81.25,521
81.26,527
81.27,524
81.28,503
81.29,502
81.3,504
81.31,499
81.32,502
81.33,501
81.34,502
81.35,500
81.36,487
81.37,500
81.38,601
81.39,724
81.4,643
81.41,494
81.42,419
81.43,442
81.44,456
81.45,471
81.46,492
81.47,501
81.48,503
81.49,507
81.5,509
81.51,512
81.52,514
81.53,517
81.54,525
81.55,530
81.56,536
81.57,546
81.58,558
81.59,563
81.6,565
81.61,571
81.62,568
81.63,548
81.64,526
81.65,498
81.66,476
81.67,457
81.68,443
81.69,444
81.7,443
81.71,450
81.72,448
81.73,448
81.74,462
81.75,463
81.76,467
81.77,478
81.78,480
81.79,486
81.8,487
81.81,489
81.82,494
81.83,495
81.84,494
81.85,497
81.86,497
81.87,496
81.88,497
81.89,508
81.9,504
81.91,503
81.92,502
81.93,504
81.94,506
81.95,506
81.96,502
81.97,499
81.98,511
81.99,513
82,504
82.01,505
82.02,513
82.03,508
82.04,511
82.05,506
82.06,504
82.07,509
82.08,508
82.09,510
82.1,503
82.11,513
82.12,510
82.13,518
82.14,518
82.15,525
82.16,529
82.17,516
82.18,503
82.19,505
82.2,497
82.21,503
82.22,499
82.23,505
82.24,497
82.25,501
82.26,482
82.27,513
82.28,618
82.29,706
82.3,617
82.31,480
82.32,419
82.33,438
82.34,455
82.35,482
82.36,490
82.37,498
82.38,497
82.39,501
82.4,517
82.41,516
82.42,511
82.43,518
82.44,527
82.45,529
82.46,532
82.47,548
82.48,560
82.49,568
82.5,568
82.51,569
82.52,561
82.53,542
82.54,517
82.55,490
82.56,463
82.57,449
82.58,444
82.59,442
82.6,444
82.61,441
82.62,450
82.63,455
82.64,462
82.65,462
82.66,474
82.67,477
82.68,480
82.69,483
82.7,484
82.71,488
82.72,493
82.73,495
82.74,497
82.75,497
82.76,497
82.77,502
82.78,499
82.79,501
82.8,504
82.81,498
82.82,510
82.83,503
82.84,504
82.85,508
82.86,506
82.87,508
82.88,506
82.89,507
82.9,505
82.91,497
82.92,511
82.93,511
82.94,514
82.95,512
82.96,508
82.97,510
82.98,512
82.99,513
83,517
83.01,512
83.02,518
83.03,518
83.04,529
83.05,527
83.06,504
83.07,502
83.08,499
83.09,500
83.1,500
83.11,502
83.12,499
83.13,497
83.14,492
83.15,489
83.16,578
83.17,714
83.18,654
83.19,514
83.2,428
83.21,439
83.22,459
83.23,474
83.24,494
83.25,499
83.26,505
83.27,510
83.28,516
83.29,515
83.3,515
83.31,523
83.32,528
83.33,527
83.34,540
83.35,544
83.36,556
83.37,561
83.38,567
83.39,570
83.4,563
83.41,553
83.42,525
83.43,502
83.44,483
83.45,456
83.46,452
83.47,444
83.48,441
83.49,446
83.5,453
83.51,455
83.52,461
83.53,466
83.54,470
83.55,477
83.56,478
83.57,486
83.58,487
83.59,492
83.6,495
83.61,497
83.62,497
83.63,499
83.64,501
83.65,501
83.66,505
83.67,506
83.68,499
83.69,502
83.7,509
83.71,503
83.72,506
83.73,512
83.74,505
83.75,506
83.76,503
83.77,504
83.78,506
83.79,508
83.8,509
83.81,509
83.82,511
83.83,511
83.84,510
83.85,505
83.86,509
83.87,511
83.88,516
83.89,510
83.9,523
83.91,522
83.92,517
83.93,510
83.94,499
83.95,498
83.96,505
83.97,503
83.98,500
83.99,501
84,505
84.01,492
84.02,486
84.03,564
84.04,686
84.05,663
84.06,532
84.07,429
84.08,427
84.09,456
84.1,467
84.11,487
84.12,497
84.13,507
84.14,506
84.15,509
84.16,517
84.17,515
84.18,521
84.19,518
84.2,526
84.21,535
84.22,541
84.23,547
84.24,562
84.25,565
84.26,564
84.27,566
84.28,551
84.29,527
84.3,503
84.31,478
84.32,460
84.33,443
84.34,443
84.35,443
84.36,446
84.37,450
84.38,451
84.39,460
84.4,466
84.41,467
84.42,473
84.43,477
84.44,485
84.45,483
84.46,484
84.47,489
84.48,490
84.49,498
84.5,496
84.51,504
84.52,496
84.53,502
84.54,499
84.55,504
84.56,503
84.57,502
84.58,498
84.59,512
84.6,504
84.61,505
84.62,506
84.63,504
84.64,511
84.65,502
84.66,504
84.67,510
84.68,502
84.69,504
84.7,512
84.71,509
84.72,507
84.73,509
84.74,515
84.75,514
84.76,512
84.77,516
84.78,519
84.79,522
84.8,516
84.81,494
84.82,505
84.83,498
84.84,503
84.85,500
84.86,496
84.87,501
84.88,497
84.89,479
84.9,499
84.91,614
84.92,712
84.93,611
84.94,478
84.95,420
84.96,438
84.97,454
84.98,480
84.99,496
85,504
85.01,504
85.02,508
85.03,517
85.04,515
85.05,522
85.06,520
85.07,533
85.08,532
85.09,543
85.1,540
85.11,559
85.12,568
85.13,572
85.14,571
85.15,563
85.16,540
85.17,516
85.18,495
85.19,469
85.2,448
85.21,440
85.22,448
85.23,444
85.24,438
85.25,458
85.26,459
85.27,458
85.28,470
85.29,469
85.3,477
85.31,490
85.32,483
85.33,489
85.34,491
85.35,499
85.36,493
85.37,495
85.38,496
85.39,496
85.4,504
85.41,500
85.42,502
85.43,510
85.44,503
85.45,508
85.46,504
85.47,503
85.48,503
85.49,506
85.5,511
85.51,513
85.52,516
85.53,507
85.54,510
85.55,503
85.56,510
85.57,508
85.58,513
85.59,510
85.6,505
85.61,513
85.62,521
85.63,516
85.64,521
85.65,526
85.66,527
85.67,516
85.68,501
85.69,499
85.7,510
85.71,504
85.72,503
85.73,501
85.74,504
85.75,500
85.76,482
85.77,500
85.78,603
85.79,722
85.8,643
85.81,494
85.82,423
85.83,441
85.84,457
85.85,475
85.86,503
85.87,503
85.88,506
85.89,508
85.9,517
85.91,512
85.92,510
85.93,531
85.94,536
85.95,537
85.96,543
85.97,547
85.98,559
85.99,563
86,575
86.01,568
86.02,564
86.03,549
86.04,522
86.05,496
86.06,470
86.07,451
86.08,443
86.09,437
86.1,435
86.11,454
86.12,455
86.13,455
86.14,455
86.15,463
86.16,467
86.17,472
86.18,473
86.19,480
86.2,486
86.21,484
86.22,492
86.23,489
86.24,489
86.25,494
86.26,489
86.27,493
86.28,502
86.29,494
86.3,497
86.31,497
86.32,491
86.33,491
86.34,497
86.35,504
86.36,496
86.37,501
86.38,500
86.39,498
86.4,497
86.41,501
86.42,503
86.43,502
86.44,496
86.45,502
86.46,499
86.47,504
86.48,506
86.49,504
86.5,509
86.51,508
86.52,510
86.53,514
86.54,516
86.55,508
86.56,493
86.57,486
86.58,494
86.59,494
86.6,494
86.61,495
86.62,494
86.63,491
86.64,474
86.65,494
86.66,600
86.67,715
86.68,623
86.69,483
86.7,416
86.71,434
86.72,449
86.73,465
86.74,485
86.75,492
86.76,504
86.77,506
86.78,510
86.79,513
86.8,513
86.81,518
86.82,521
86.83,528
86.84,539
86.85,547
86.86,556
86.87,572
86.88,562
86.89,568
86.9,558
86.91,543
86.92,519
86.93,486
86.94,466
86.95,455
86.96,442
86.97,440
86.98,450
86.99,436
87,451
87.01,459
87.02,473
87.03,470
87.04,474
87.05,478
87.06,479
87.07,492
87.08,483
87.09,499
87.1,499
87.11,497
87.12,505
87.13,502
87.14,513
87.15,506
87.16,519
87.17,514
87.18,502
87.19,513
87.2,512
87.21,510
87.22,512
87.23,515
87.24,516
87.25,512
87.26,513
87.27,520
87.28,512
87.29,527
87.3,516
87.31,515
87.32,516
87.33,514
87.34,518
87.35,521
87.36,522
87.37,520
87.38,513
87.39,532
87.4,520
87.41,524
87.42,529
87.43,515
87.44,519
87.45,502
87.46,492
87.47,492
87.48,509
87.49,448
87.5,555
87.51,530
87.52,524
87.53,505
87.54,527
87.55,636
87.56,734
87.57,632
87.58,484
87.59,423
87.6,449
87.61,472
87.62,479
87.63,493
87.64,496
87.65,507
87.66,501
87.67,511
87.68,510
87.69,515
87.7,519
87.71,526
87.72,519
87.73,552
87.74,541
87.75,554
87.76,555
87.77,559
87.78,567
87.79,574
87.8,537
87.81,528
87.82,484
87.83,462
87.84,459
87.85,447
87.86,428
87.87,442
87.88,437
87.89,440
87.9,454
87.91,460
87.92,487
87.93,467
87.94,487
87.95,455
87.96,483
87.97,496
87.98,479
87.99,499
88,496
88.01,507
88.02,497
88.03,507
88.04,501
88.05,485
88.06,494
88.07,509
88.08,497
88.09,496
88.1,522
88.11,488
88.12,515
88.13,495
88.14,514
88.15,502
88.16,511
88.17,508
88.18,492
88.19,517
88.2,521
88.21,502
88.22,533
88.23,499
88.24,512
88.25,522
88.26,513
88.27,517
88.28,531
88.29,531
88.3,542
88.31,482
88.32,507
88.33,507
88.34,516
88.35,515
88.36,519
88.37,510
88.38,504
88.39,492
88.4,520
88.41,641
88.42,733
88.43,596
88.44,461
88.45,433
88.46,449
88.47,467
88.48,494
88.49,492
88.5,513
88.51,507
88.52,536
88.53,508
88.54,517
88.55,556
88.56,502
88.57,528
88.58,550
88.59,536
88.6,553
88.61,566
88.62,571
88.63,587
88.64,575
88.65,560
88.66,560
88.67,501
88.68,483
88.69,460
88.7,464
88.71,443
88.72,435
88.73,454
88.74,440
88.75,438
88.76,453
88.77,460
88.78,468
88.79,479
88.8,483
88.81,475
88.82,490
88.83,498
88.84,486
88.85,477
88.86,494
88.87,487
88.88,504
88.89,505
88.9,504
88.91,514
88.92,520
88.93,493
88.94,484
88.95,501
88.96,515
88.97,501
88.98,486
88.99,515
89,496
89.01,487
89.02,511
89.03,524
89.04,499
89.05,521
89.06,512
89.07,496
89.08,504
89.09,487
89.1,519
89.11,516
89.12,501
89.13,529
89.14,520
89.15,534
89.16,511
89.17,504
89.18,523
89.19,495
89.2,481
89.21,473
89.22,534
89.23,511
89.24,510
89.25,491
89.26,501
89.27,484
89.28,480
89.29,568
89.3,718
89.31,659
89.32,489
89.33,411
89.34,436
89.35,436
89.36,468
89.37,485
89.38,500
89.39,489
89.4,500
89.41,500
89.42,515
89.43,521
89.44,521
89.45,528
89.46,505
89.47,528
89.48,534
89.49,557
89.5,537
89.51,576
89.52,566
89.53,544
89.54,551
89.55,512
89.56,505
89.57,462
89.58,456
89.59,458
89.6,456
89.61,434
89.62,447
89.63,463
89.64,442
89.65,460
89.66,444
89.67,472
89.68,475
89.69,495
89.7,479
89.71,498
89.72,483
89.73,495
89.74,496
89.75,495
89.76,485
89.77,501
89.78,475
89.79,524
89.8,471
89.81,515
89.82,529
89.83,510
89.84,516
89.85,514
89.86,510
89.87,518
89.88,506
89.89,507
89.9,512
89.91,531
89.92,525
89.93,521
89.94,516
89.95,480
89.96,496
89.97,516
89.98,500
89.99,516
90,512
90.01,435
90.02,527
90.03,516
90.04,514
90.05,521
90.06,519
90.07,529
90.08,490
90.09,521
90.1,535
90.11,543
90.12,467
90.13,505
90.14,497
90.15,505
90.16,511
90.17,488
90.18,483
90.19,599
90.2,695
90.21,658
90.22,521
90.23,406
90.24,434
90.25,465
90.26,469
90.27,488
90.28,485
90.29,520
90.3,488
90.31,540
90.32,465
90.33,528
90.34,508
90.35,545
90.36,525
90.37,556
90.38,555
90.39,572
90.4,516
90.41,593
90.42,585
90.43,563
90.44,563
90.45,551
90.46,521
90.47,461
90.48,456
90.49,430
90.5,436
90.51,468
90.52,450
90.53,437
90.54,459
90.55,444
90.56,488
90.57,478
90.58,462
90.59,504
90.6,449
90.61,475
90.62,472
90.63,482
90.64,493
90.65,530
90.66,517
90.67,482
90.68,499
90.69,500
90.7,501
90.71,502
90.72,496
90.73,539
90.74,533
90.75,501
90.76,529
90.77,489
90.78,537
90.79,489
90.8,517
90.81,494
90.82,518
90.83,512
90.84,483
90.85,487
90.86,502
90.87,510
90.88,506
90.89,527
90.9,533
90.91,517
90.92,522
90.93,531
90.94,516
90.95,485
90.96,521
90.97,579
90.98,513
90.99,512
91,524
91.01,471
91.02,508
91.03,514
91.04,485
91.05,530
91.06,508
91.07,480
91.08,531
91.09,592
91.1,752
91.11,612
91.12,518
91.13,413
91.14,431
91.15,438
91.16,473
91.17,509
91.18,509
91.19,492
91.2,496
91.21,502
91.22,543
91.23,502
91.24,550
91.25,516
91.26,537
91.27,561
91.28,543
91.29,559
91.3,559
91.31,568
91.32,587
91.33,579
91.34,572
91.35,509
91.36,514
91.37,477
91.38,446
91.39,467
91.4,448
91.41,435
91.42,428
91.43,442
91.44,453
91.45,448
91.46,488
91.47,465
91.48,477
91.49,494
91.5,471
91.51,462
91.52,506
91.53,476
91.54,512
91.55,492
91.56,521
91.57,534
91.58,476
91.59,492
91.6,493
91.61,473
91.62,506
91.63,540
91.64,503
91.65,519
91.66,506
91.67,487
91.68,515
91.69,529
91.7,482
91.71,504
91.72,534
91.73,526
91.74,512
91.75,520
91.76,476
91.77,490
91.78,546
91.79,514
91.8,557
91.81,465
91.82,512
91.83,525
91.84,504
91.85,527
91.86,515
91.87,555
91.88,526
91.89,495
91.9,485
91.91,534
91.92,485
91.93,478
91.94,475
91.95,485
91.96,453
91.97,467
91.98,514
91.99,536
92,737
92.01,647
92.02,545
92.03,413
92.04,388
92.05,450
92.06,456
92.07,508
92.08,482
92.09,471
92.1,518
92.11,537
92.12,511
92.13,529
92.14,493
92.15,559
92.16,515
92.17,502
92.18,560
92.19,588
92.2,593
92.21,572
92.22,623
92.23,619
92.24,544
92.25,549
92.26,498
92.27,523
92.28,446
92.29,460
92.3,423
92.31,472
92.32,468
92.33,435
92.34,464
92.35,442
92.36,428
92.37,454
92.38,482
92.39,461
92.4,472
92.41,483
92.42,493
92.43,464
92.44,507
92.45,467
92.46,529
92.47,463
92.48,497
92.49,504
92.5,496
92.51,498
92.52,485
92.53,471
92.54,544
92.55,537
92.56,487
92.57,467
92.58,516
92.59,487
92.6,481
92.61,490
92.62,499
92.63,496
92.64,493
92.65,479
92.66,513
92.67,487
92.68,483
92.69,493
92.7,523
92.71,502
92.72,476
92.73,504
92.74,532
92.75,531
92.76,496
92.77,496
92.78,528
92.79,482
92.8,479
92.81,486
92.82,499
92.83,476
92.84,497
92.85,481
92.86,467
92.87,482
92.88,490
92.89,526
92.9,631
92.91,687
92.92,553
92.93,427
92.94,378
92.95,472
92.96,457
92.97,489
92.98,499
92.99,500
93,510
93.01,483
93.02,494
93.03,516
93.04,532
93.05,503
93.06,519
93.07,532
93.08,518
93.09,563
93.1,580
93.11,564
93.12,582
93.13,534
93.14,535
93.15,541
93.16,532
93.17,474
93.18,493
93.19,470
93.2,407
93.21,463
93.22,422
93.23,455
93.24,460
93.25,475
93.26,475
93.27,473
93.28,465
93.29,484
93.3,504
93.31,491
93.32,502
93.33,513
93.34,493
93.35,517
93.36,487
93.37,502
93.38,524
93.39,507
93.4,496
93.41,522
93.42,507
93.43,525
93.44,512
93.45,544
93.46,493
93.47,511
93.48,528
93.49,520
93.5,494
93.51,529
93.52,524
93.53,527
93.54,518
93.55,524
93.56,497
93.57,539
93.58,543
93.59,507
93.6,543
93.61,505
93.62,510
93.63,499
93.64,551
93.65,540
93.66,493
93.67,555
93.68,561
93.69,531
93.7,483
93.71,507
93.72,485
93.73,487
93.74,497
93.75,512
93.76,510
93.77,493
93.78,508
93.79,492
93.8,599
93.81,708
93.82,701
93.83,502
93.84,403
93.85,451
93.86,449
93.87,471
93.88,483
93.89,509
93.9,517
93.91,515
93.92,488
93.93,504
93.94,518
93.95,546
93.96,542
93.97,550
93.98,529
93.99,526
94,577
94.01,554
94.02,569
94.03,600
94.04,551
94.05,546
94.06,551
94.07,540
94.08,482
94.09,452
94.1,433
94.11,439
94.12,439
94.13,457
94.14,460
94.15,429
94.16,488
94.17,456
94.18,489
94.19,506
94.2,484
94.21,472
94.22,517
94.23,447
94.24,527
94.25,512
94.26,526
94.27,470
94.28,512
94.29,512
94.3,518
94.31,471
94.32,502
94.33,507
94.34,478
94.35,506
94.36,488
94.37,510
94.38,500
94.39,502
94.4,509
94.41,519
94.42,513
94.43,508
94.44,530
94.45,481
94.46,516
94.47,524
94.48,497
94.49,521
94.5,519
94.51,483
94.52,538
94.53,524
94.54,505
94.55,521
94.56,529
94.57,519
94.58,501
94.59,481
94.6,465
94.61,498
94.62,503
94.63,492
94.64,497
94.65,481
94.66,471
94.67,461
94.68,458
94.69,588
94.7,699
94.71,609
94.72,487
94.73,398
94.74,359
94.75,405
94.76,455
94.77,414
94.78,507
94.79,448
94.8,435
94.81,446
94.82,494
94.83,447
94.84,468
94.85,515
94.86,488
94.87,480
94.88,471
94.89,467
94.9,539
94.91,511
94.92,496
94.93,536
94.94,497
